Time(s)	V(m/s)
0.000	5.186
0.010	5.193
0.020	5.201
0.030	5.208
0.040	5.216
0.050	5.224
0.060	5.232
0.070	5.240
0.080	5.249
0.090	5.259
0.100	5.270
0.110	5.284
0.120	5.298
0.130	5.314
0.140	5.330
0.150	5.345
0.160	5.358
0.170	5.368
0.180	5.374
0.190	5.375
0.200	5.371
0.210	5.362
0.220	5.348
0.230	5.331
0.240	5.313
0.250	5.294
0.260	5.278
0.270	5.265
0.280	5.257
0.290	5.256
0.300	5.263
0.310	5.277
0.320	5.298
0.330	5.326
0.340	5.358
0.350	5.393
0.360	5.430
0.370	5.467
0.380	5.502
0.390	5.534
0.400	5.562
0.410	5.585
0.420	5.604
0.430	5.618
0.440	5.627
0.450	5.631
0.460	5.631
0.470	5.625
0.480	5.615
0.490	5.600
0.500	5.580
0.510	5.555
0.520	5.524
0.530	5.490
0.540	5.452
0.550	5.411
0.560	5.369
0.570	5.329
0.580	5.292
0.590	5.259
0.600	5.234
0.610	5.216
0.620	5.208
0.630	5.208
0.640	5.218
0.650	5.235
0.660	5.258
0.670	5.284
0.680	5.312
0.690	5.339
0.700	5.362
0.710	5.380
0.720	5.392
0.730	5.397
0.740	5.396
0.750	5.390
0.760	5.381
0.770	5.369
0.780	5.356
0.790	5.346
0.800	5.337
0.810	5.332
0.820	5.330
0.830	5.331
0.840	5.334
0.850	5.338
0.860	5.340
0.870	5.341
0.880	5.338
0.890	5.330
0.900	5.318
0.910	5.301
0.920	5.281
0.930	5.258
0.940	5.235
0.950	5.214
0.960	5.195
0.970	5.181
0.980	5.171
0.990	5.167
1.000	5.168
1.010	5.174
1.020	5.182
1.030	5.192
1.040	5.202
1.050	5.212
1.060	5.219
1.070	5.223
1.080	5.226
1.090	5.226
1.100	5.225
1.110	5.226
1.120	5.228
1.130	5.233
1.140	5.243
1.150	5.258
1.160	5.278
1.170	5.302
1.180	5.329
1.190	5.356
1.200	5.383
1.210	5.406
1.220	5.423
1.230	5.434
1.240	5.436
1.250	5.429
1.260	5.414
1.270	5.391
1.280	5.363
1.290	5.331
1.300	5.298
1.310	5.266
1.320	5.236
1.330	5.211
1.340	5.191
1.350	5.175
1.360	5.165
1.370	5.158
1.380	5.154
1.390	5.150
1.400	5.146
1.410	5.139
1.420	5.128
1.430	5.114
1.440	5.096
1.450	5.074
1.460	5.050
1.470	5.024
1.480	4.999
1.490	4.975
1.500	4.954
1.510	4.936
1.520	4.921
1.530	4.911
1.540	4.904
1.550	4.899
1.560	4.896
1.570	4.893
1.580	4.891
1.590	4.887
1.600	4.881
1.610	4.874
1.620	4.865
1.630	4.855
1.640	4.846
1.650	4.837
1.660	4.829
1.670	4.824
1.680	4.821
1.690	4.822
1.700	4.826
1.710	4.832
1.720	4.840
1.730	4.850
1.740	4.860
1.750	4.871
1.760	4.880
1.770	4.889
1.780	4.896
1.790	4.903
1.800	4.907
1.810	4.912
1.820	4.915
1.830	4.918
1.840	4.922
1.850	4.925
1.860	4.928
1.870	4.931
1.880	4.933
1.890	4.933
1.900	4.932
1.910	4.929
1.920	4.923
1.930	4.915
1.940	4.905
1.950	4.893
1.960	4.880
1.970	4.867
1.980	4.853
1.990	4.841
2.000	4.831
2.010	4.822
2.020	4.816
2.030	4.811
2.040	4.807
2.050	4.804
2.060	4.801
2.070	4.797
2.080	4.792
2.090	4.785
2.100	4.775
2.110	4.764
2.120	4.751
2.130	4.736
2.140	4.720
2.150	4.705
2.160	4.690
2.170	4.676
2.180	4.665
2.190	4.656
2.200	4.649
2.210	4.644
2.220	4.642
2.230	4.641
2.240	4.642
2.250	4.643
2.260	4.644
2.270	4.645
2.280	4.646
2.290	4.647
2.300	4.647
2.310	4.646
2.320	4.645
2.330	4.643
2.340	4.641
2.350	4.638
2.360	4.634
2.370	4.630
2.380	4.624
2.390	4.618
2.400	4.611
2.410	4.602
2.420	4.594
2.430	4.586
2.440	4.580
2.450	4.575
2.460	4.574
2.470	4.578
2.480	4.586
2.490	4.600
2.500	4.620
2.510	4.645
2.520	4.674
2.530	4.707
2.540	4.741
2.550	4.775
2.560	4.807
2.570	4.835
2.580	4.858
2.590	4.873
2.600	4.882
2.610	4.883
2.620	4.877
2.630	4.866
2.640	4.850
2.650	4.831
2.660	4.812
2.670	4.794
2.680	4.779
2.690	4.768
2.700	4.760
2.710	4.758
2.720	4.759
2.730	4.765
2.740	4.772
2.750	4.781
2.760	4.789
2.770	4.796
2.780	4.801
2.790	4.803
2.800	4.802
2.810	4.798
2.820	4.793
2.830	4.786
2.840	4.779
2.850	4.772
2.860	4.767
2.870	4.764
2.880	4.765
2.890	4.768
2.900	4.774
2.910	4.784
2.920	4.795
2.930	4.809
2.940	4.823
2.950	4.838
2.960	4.854
2.970	4.869
2.980	4.884
2.990	4.898
3.000	4.912
3.010	4.924
3.020	4.936
3.030	4.947
3.040	4.957
3.050	4.964
3.060	4.970
3.070	4.973
3.080	4.973
3.090	4.969
3.100	4.963
3.110	4.953
3.120	4.941
3.130	4.927
3.140	4.912
3.150	4.897
3.160	4.884
3.170	4.873
3.180	4.866
3.190	4.862
3.200	4.863
3.210	4.868
3.220	4.877
3.230	4.888
3.240	4.901
3.250	4.914
3.260	4.925
3.270	4.934
3.280	4.940
3.290	4.941
3.300	4.937
3.310	4.929
3.320	4.917
3.330	4.901
3.340	4.884
3.350	4.867
3.360	4.850
3.370	4.836
3.380	4.826
3.390	4.819
3.400	4.818
3.410	4.821
3.420	4.828
3.430	4.839
3.440	4.852
3.450	4.866
3.460	4.880
3.470	4.893
3.480	4.903
3.490	4.911
3.500	4.914
3.510	4.913
3.520	4.909
3.530	4.900
3.540	4.888
3.550	4.873
3.560	4.857
3.570	4.839
3.580	4.822
3.590	4.805
3.600	4.791
3.610	4.779
3.620	4.770
3.630	4.766
3.640	4.767
3.650	4.772
3.660	4.782
3.670	4.797
3.680	4.815
3.690	4.838
3.700	4.863
3.710	4.889
3.720	4.916
3.730	4.942
3.740	4.966
3.750	4.987
3.760	5.004
3.770	5.016
3.780	5.023
3.790	5.025
3.800	5.022
3.810	5.015
3.820	5.004
3.830	4.990
3.840	4.974
3.850	4.957
3.860	4.939
3.870	4.922
3.880	4.905
3.890	4.890
3.900	4.875
3.910	4.862
3.920	4.850
3.930	4.838
3.940	4.828
3.950	4.818
3.960	4.810
3.970	4.802
3.980	4.797
3.990	4.793
4.000	4.791
4.010	4.792
4.020	4.795
4.030	4.800
4.040	4.808
4.050	4.817
4.060	4.828
4.070	4.838
4.080	4.846
4.090	4.853
4.100	4.857
4.110	4.856
4.120	4.852
4.130	4.843
4.140	4.830
4.150	4.814
4.160	4.794
4.170	4.773
4.180	4.751
4.190	4.730
4.200	4.709
4.210	4.691
4.220	4.676
4.230	4.664
4.240	4.655
4.250	4.650
4.260	4.647
4.270	4.647
4.280	4.648
4.290	4.651
4.300	4.654
4.310	4.658
4.320	4.662
4.330	4.667
4.340	4.671
4.350	4.674
4.360	4.677
4.370	4.679
4.380	4.679
4.390	4.678
4.400	4.674
4.410	4.666
4.420	4.655
4.430	4.640
4.440	4.621
4.450	4.598
4.460	4.571
4.470	4.541
4.480	4.510
4.490	4.479
4.500	4.449
4.510	4.423
4.520	4.402
4.530	4.388
4.540	4.381
4.550	4.382
4.560	4.392
4.570	4.409
4.580	4.433
4.590	4.463
4.600	4.495
4.610	4.528
4.620	4.561
4.630	4.590
4.640	4.614
4.650	4.632
4.660	4.642
4.670	4.646
4.680	4.642
4.690	4.631
4.700	4.616
4.710	4.596
4.720	4.575
4.730	4.553
4.740	4.532
4.750	4.514
4.760	4.499
4.770	4.490
4.780	4.485
4.790	4.486
4.800	4.492
4.810	4.502
4.820	4.515
4.830	4.532
4.840	4.549
4.850	4.567
4.860	4.584
4.870	4.598
4.880	4.609
4.890	4.617
4.900	4.620
4.910	4.618
4.920	4.612
4.930	4.602
4.940	4.589
4.950	4.574
4.960	4.557
4.970	4.541
4.980	4.527
4.990	4.516
5.000	4.509
5.010	4.507
5.020	4.511
5.030	4.520
5.040	4.534
5.050	4.553
5.060	4.574
5.070	4.598
5.080	4.621
5.090	4.643
5.100	4.663
5.110	4.678
5.120	4.690
5.130	4.696
5.140	4.698
5.150	4.696
5.160	4.690
5.170	4.683
5.180	4.675
5.190	4.668
5.200	4.662
5.210	4.657
5.220	4.656
5.230	4.656
5.240	4.658
5.250	4.660
5.260	4.663
5.270	4.664
5.280	4.663
5.290	4.659
5.300	4.652
5.310	4.642
5.320	4.629
5.330	4.615
5.340	4.600
5.350	4.585
5.360	4.573
5.370	4.564
5.380	4.559
5.390	4.559
5.400	4.564
5.410	4.573
5.420	4.585
5.430	4.600
5.440	4.616
5.450	4.631
5.460	4.644
5.470	4.654
5.480	4.660
5.490	4.662
5.500	4.659
5.510	4.654
5.520	4.646
5.530	4.637
5.540	4.628
5.550	4.621
5.560	4.617
5.570	4.617
5.580	4.620
5.590	4.628
5.600	4.639
5.610	4.654
5.620	4.670
5.630	4.686
5.640	4.701
5.650	4.715
5.660	4.725
5.670	4.732
5.680	4.735
5.690	4.735
5.700	4.731
5.710	4.725
5.720	4.717
5.730	4.709
5.740	4.701
5.750	4.694
5.760	4.690
5.770	4.688
5.780	4.690
5.790	4.696
5.800	4.704
5.810	4.716
5.820	4.732
5.830	4.749
5.840	4.769
5.850	4.790
5.860	4.812
5.870	4.834
5.880	4.855
5.890	4.875
5.900	4.891
5.910	4.905
5.920	4.915
5.930	4.921
5.940	4.922
5.950	4.919
5.960	4.912
5.970	4.902
5.980	4.889
5.990	4.876
6.000	4.863
6.010	4.851
6.020	4.843
6.030	4.838
6.040	4.838
6.050	4.842
6.060	4.851
6.070	4.863
6.080	4.877
6.090	4.891
6.100	4.904
6.110	4.915
6.120	4.921
6.130	4.921
6.140	4.916
6.150	4.905
6.160	4.889
6.170	4.870
6.180	4.848
6.190	4.827
6.200	4.808
6.210	4.793
6.220	4.784
6.230	4.782
6.240	4.786
6.250	4.796
6.260	4.811
6.270	4.829
6.280	4.847
6.290	4.862
6.300	4.873
6.310	4.876
6.320	4.870
6.330	4.854
6.340	4.828
6.350	4.794
6.360	4.752
6.370	4.705
6.380	4.657
6.390	4.609
6.400	4.566
6.410	4.529
6.420	4.500
6.430	4.480
6.440	4.470
6.450	4.467
6.460	4.472
6.470	4.482
6.480	4.494
6.490	4.505
6.500	4.514
6.510	4.517
6.520	4.515
6.530	4.505
6.540	4.488
6.550	4.465
6.560	4.436
6.570	4.405
6.580	4.372
6.590	4.341
6.600	4.312
6.610	4.288
6.620	4.270
6.630	4.258
6.640	4.252
6.650	4.251
6.660	4.256
6.670	4.264
6.680	4.274
6.690	4.284
6.700	4.295
6.710	4.304
6.720	4.310
6.730	4.314
6.740	4.315
6.750	4.314
6.760	4.311
6.770	4.306
6.780	4.301
6.790	4.295
6.800	4.289
6.810	4.285
6.820	4.281
6.830	4.278
6.840	4.277
6.850	4.276
6.860	4.277
6.870	4.278
6.880	4.280
6.890	4.283
6.900	4.286
6.910	4.290
6.920	4.294
6.930	4.299
6.940	4.303
6.950	4.308
6.960	4.312
6.970	4.316
6.980	4.318
6.990	4.318
7.000	4.316
7.010	4.311
7.020	4.303
7.030	4.292
7.040	4.278
7.050	4.262
7.060	4.243
7.070	4.223
7.080	4.203
7.090	4.184
7.100	4.168
7.110	4.154
7.120	4.145
7.130	4.141
7.140	4.142
7.150	4.149
7.160	4.161
7.170	4.177
7.180	4.196
7.190	4.217
7.200	4.238
7.210	4.257
7.220	4.273
7.230	4.285
7.240	4.292
7.250	4.292
7.260	4.286
7.270	4.274
7.280	4.258
7.290	4.238
7.300	4.216
7.310	4.193
7.320	4.173
7.330	4.155
7.340	4.143
7.350	4.135
7.360	4.133
7.370	4.137
7.380	4.145
7.390	4.157
7.400	4.170
7.410	4.184
7.420	4.196
7.430	4.204
7.440	4.209
7.450	4.208
7.460	4.202
7.470	4.192
7.480	4.179
7.490	4.165
7.500	4.151
7.510	4.139
7.520	4.131
7.530	4.130
7.540	4.134
7.550	4.145
7.560	4.163
7.570	4.185
7.580	4.210
7.590	4.236
7.600	4.260
7.610	4.280
7.620	4.294
7.630	4.300
7.640	4.299
7.650	4.290
7.660	4.274
7.670	4.253
7.680	4.230
7.690	4.207
7.700	4.188
7.710	4.173
7.720	4.166
7.730	4.169
7.740	4.180
7.750	4.200
7.760	4.227
7.770	4.260
7.780	4.295
7.790	4.329
7.800	4.360
7.810	4.386
7.820	4.404
7.830	4.413
7.840	4.412
7.850	4.404
7.860	4.388
7.870	4.366
7.880	4.341
7.890	4.315
7.900	4.289
7.910	4.266
7.920	4.246
7.930	4.231
7.940	4.220
7.950	4.212
7.960	4.207
7.970	4.204
7.980	4.201
7.990	4.198
8.000	4.194
8.010	4.190
8.020	4.185
8.030	4.182
8.040	4.181
8.050	4.183
8.060	4.190
8.070	4.202
8.080	4.220
8.090	4.244
8.100	4.273
8.110	4.305
8.120	4.338
8.130	4.370
8.140	4.399
8.150	4.422
8.160	4.438
8.170	4.445
8.180	4.442
8.190	4.431
8.200	4.412
8.210	4.386
8.220	4.356
8.230	4.325
8.240	4.295
8.250	4.268
8.260	4.245
8.270	4.229
8.280	4.218
8.290	4.213
8.300	4.213
8.310	4.216
8.320	4.221
8.330	4.226
8.340	4.229
8.350	4.229
8.360	4.225
8.370	4.217
8.380	4.206
8.390	4.192
8.400	4.176
8.410	4.160
8.420	4.146
8.430	4.134
8.440	4.125
8.450	4.120
8.460	4.120
8.470	4.123
8.480	4.129
8.490	4.138
8.500	4.148
8.510	4.159
8.520	4.169
8.530	4.178
8.540	4.187
8.550	4.194
8.560	4.200
8.570	4.207
8.580	4.213
8.590	4.220
8.600	4.229
8.610	4.238
8.620	4.249
8.630	4.260
8.640	4.271
8.650	4.282
8.660	4.291
8.670	4.298
8.680	4.302
8.690	4.303
8.700	4.302
8.710	4.298
8.720	4.292
8.730	4.285
8.740	4.278
8.750	4.272
8.760	4.267
8.770	4.264
8.780	4.263
8.790	4.265
8.800	4.269
8.810	4.274
8.820	4.279
8.830	4.285
8.840	4.291
8.850	4.296
8.860	4.299
8.870	4.302
8.880	4.305
8.890	4.307
8.900	4.310
8.910	4.314
8.920	4.319
8.930	4.326
8.940	4.334
8.950	4.343
8.960	4.352
8.970	4.360
8.980	4.366
8.990	4.369
9.000	4.368
9.010	4.362
9.020	4.350
9.030	4.334
9.040	4.313
9.050	4.288
9.060	4.260
9.070	4.232
9.080	4.203
9.090	4.176
9.100	4.151
9.110	4.130
9.120	4.112
9.130	4.097
9.140	4.085
9.150	4.075
9.160	4.065
9.170	4.056
9.180	4.046
9.190	4.035
9.200	4.024
9.210	4.011
9.220	3.998
9.230	3.986
9.240	3.976
9.250	3.968
9.260	3.965
9.270	3.966
9.280	3.971
9.290	3.981
9.300	3.993
9.310	4.009
9.320	4.025
9.330	4.040
9.340	4.054
9.350	4.064
9.360	4.070
9.370	4.071
9.380	4.069
9.390	4.062
9.400	4.054
9.410	4.045
9.420	4.036
9.430	4.030
9.440	4.027
9.450	4.029
9.460	4.035
9.470	4.047
9.480	4.062
9.490	4.080
9.500	4.099
9.510	4.119
9.520	4.137
9.530	4.153
9.540	4.165
9.550	4.174
9.560	4.179
9.570	4.182
9.580	4.182
9.590	4.183
9.600	4.184
9.610	4.186
9.620	4.192
9.630	4.200
9.640	4.211
9.650	4.224
9.660	4.239
9.670	4.254
9.680	4.267
9.690	4.277
9.700	4.284
9.710	4.286
9.720	4.284
9.730	4.277
9.740	4.266
9.750	4.254
9.760	4.241
9.770	4.229
9.780	4.220
9.790	4.216
9.800	4.218
9.810	4.226
9.820	4.240
9.830	4.260
9.840	4.284
9.850	4.311
9.860	4.339
9.870	4.366
9.880	4.391
9.890	4.410
9.900	4.424
9.910	4.431
9.920	4.431
9.930	4.424
9.940	4.411
9.950	4.393
9.960	4.371
9.970	4.348
9.980	4.324
9.990	4.301
10.000	4.281
10.010	4.265
10.020	4.253
10.030	4.246
10.040	4.244
10.050	4.246
10.060	4.253
10.070	4.263
10.080	4.276
10.090	4.289
10.100	4.303
10.110	4.316
10.120	4.326
10.130	4.333
10.140	4.336
10.150	4.334
10.160	4.327
10.170	4.316
10.180	4.301
10.190	4.282
10.200	4.260
10.210	4.237
10.220	4.215
10.230	4.194
10.240	4.175
10.250	4.160
10.260	4.148
10.270	4.141
10.280	4.138
10.290	4.137
10.300	4.139
10.310	4.141
10.320	4.143
10.330	4.142
10.340	4.139
10.350	4.131
10.360	4.120
10.370	4.105
10.380	4.087
10.390	4.067
10.400	4.048
10.410	4.030
10.420	4.016
10.430	4.006
10.440	4.003
10.450	4.005
10.460	4.014
10.470	4.027
10.480	4.045
10.490	4.065
10.500	4.085
10.510	4.104
10.520	4.120
10.530	4.132
10.540	4.139
10.550	4.140
10.560	4.138
10.570	4.133
10.580	4.126
10.590	4.120
10.600	4.116
10.610	4.116
10.620	4.121
10.630	4.131
10.640	4.147
10.650	4.167
10.660	4.190
10.670	4.214
10.680	4.238
10.690	4.258
10.700	4.274
10.710	4.284
10.720	4.287
10.730	4.284
10.740	4.275
10.750	4.261
10.760	4.244
10.770	4.226
10.780	4.208
10.790	4.192
10.800	4.180
10.810	4.171
10.820	4.165
10.830	4.162
10.840	4.161
10.850	4.160
10.860	4.158
10.870	4.154
10.880	4.147
10.890	4.136
10.900	4.123
10.910	4.108
10.920	4.093
10.930	4.080
10.940	4.070
10.950	4.066
10.960	4.069
10.970	4.078
10.980	4.096
10.990	4.119
11.000	4.147
11.010	4.176
11.020	4.205
11.030	4.230
11.040	4.248
11.050	4.256
11.060	4.254
11.070	4.241
11.080	4.218
11.090	4.185
11.100	4.146
11.110	4.103
11.120	4.061
11.130	4.022
11.140	3.990
11.150	3.967
11.160	3.955
11.170	3.954
11.180	3.964
11.190	3.983
11.200	4.009
11.210	4.039
11.220	4.069
11.230	4.098
11.240	4.122
11.250	4.139
11.260	4.148
11.270	4.149
11.280	4.143
11.290	4.130
11.300	4.113
11.310	4.093
11.320	4.072
11.330	4.053
11.340	4.037
11.350	4.025
11.360	4.017
11.370	4.013
11.380	4.014
11.390	4.017
11.400	4.022
11.410	4.029
11.420	4.036
11.430	4.043
11.440	4.050
11.450	4.057
11.460	4.065
11.470	4.074
11.480	4.086
11.490	4.100
11.500	4.118
11.510	4.139
11.520	4.163
11.530	4.190
11.540	4.218
11.550	4.245
11.560	4.272
11.570	4.296
11.580	4.316
11.590	4.330
11.600	4.340
11.610	4.343
11.620	4.341
11.630	4.334
11.640	4.323
11.650	4.309
11.660	4.294
11.670	4.278
11.680	4.263
11.690	4.249
11.700	4.238
11.710	4.230
11.720	4.226
11.730	4.225
11.740	4.227
11.750	4.233
11.760	4.242
11.770	4.253
11.780	4.266
11.790	4.280
11.800	4.295
11.810	4.311
11.820	4.325
11.830	4.338
11.840	4.348
11.850	4.354
11.860	4.356
11.870	4.353
11.880	4.345
11.890	4.332
11.900	4.313
11.910	4.291
11.920	4.266
11.930	4.239
11.940	4.212
11.950	4.187
11.960	4.165
11.970	4.148
11.980	4.136
11.990	4.129
12.000	4.128
12.010	4.131
12.020	4.137
12.030	4.145
12.040	4.153
12.050	4.158
12.060	4.160
12.070	4.157
12.080	4.149
12.090	4.136
12.100	4.118
12.110	4.096
12.120	4.073
12.130	4.050
12.140	4.029
12.150	4.012
12.160	4.000
12.170	3.994
12.180	3.994
12.190	3.999
12.200	4.009
12.210	4.022
12.220	4.036
12.230	4.048
12.240	4.056
12.250	4.060
12.260	4.058
12.270	4.049
12.280	4.033
12.290	4.012
12.300	3.987
12.310	3.960
12.320	3.932
12.330	3.906
12.340	3.884
12.350	3.868
12.360	3.858
12.370	3.855
12.380	3.859
12.390	3.869
12.400	3.885
12.410	3.906
12.420	3.928
12.430	3.952
12.440	3.975
12.450	3.996
12.460	4.014
12.470	4.028
12.480	4.036
12.490	4.040
12.500	4.038
12.510	4.031
12.520	4.019
12.530	4.002
12.540	3.981
12.550	3.957
12.560	3.930
12.570	3.901
12.580	3.873
12.590	3.846
12.600	3.822
12.610	3.803
12.620	3.789
12.630	3.782
12.640	3.782
12.650	3.791
12.660	3.808
12.670	3.832
12.680	3.862
12.690	3.896
12.700	3.933
12.710	3.969
12.720	4.004
12.730	4.035
12.740	4.060
12.750	4.078
12.760	4.089
12.770	4.094
12.780	4.093
12.790	4.087
12.800	4.079
12.810	4.070
12.820	4.062
12.830	4.056
12.840	4.054
12.850	4.056
12.860	4.062
12.870	4.072
12.880	4.084
12.890	4.097
12.900	4.111
12.910	4.122
12.920	4.131
12.930	4.136
12.940	4.138
12.950	4.136
12.960	4.131
12.970	4.124
12.980	4.116
12.990	4.108
13.000	4.100
13.010	4.095
13.020	4.090
13.030	4.087
13.040	4.085
13.050	4.083
13.060	4.080
13.070	4.075
13.080	4.067
13.090	4.057
13.100	4.044
13.110	4.029
13.120	4.013
13.130	3.998
13.140	3.986
13.150	3.979
13.160	3.977
13.170	3.982
13.180	3.994
13.190	4.013
13.200	4.037
13.210	4.065
13.220	4.093
13.230	4.120
13.240	4.142
13.250	4.157
13.260	4.165
13.270	4.162
13.280	4.150
13.290	4.130
13.300	4.103
13.310	4.072
13.320	4.039
13.330	4.008
13.340	3.981
13.350	3.961
13.360	3.948
13.370	3.942
13.380	3.944
13.390	3.951
13.400	3.961
13.410	3.972
13.420	3.979
13.430	3.982
13.440	3.977
13.450	3.964
13.460	3.942
13.470	3.912
13.480	3.876
13.490	3.837
13.500	3.797
13.510	3.761
13.520	3.729
13.530	3.707
13.540	3.694
13.550	3.692
13.560	3.700
13.570	3.717
13.580	3.742
13.590	3.771
13.600	3.803
13.610	3.833
13.620	3.860
13.630	3.883
13.640	3.900
13.650	3.911
13.660	3.918
13.670	3.921
13.680	3.922
13.690	3.924
13.700	3.928
13.710	3.936
13.720	3.948
13.730	3.965
13.740	3.986
13.750	4.011
13.760	4.038
13.770	4.064
13.780	4.089
13.790	4.110
13.800	4.127
13.810	4.139
13.820	4.145
13.830	4.146
13.840	4.143
13.850	4.139
13.860	4.133
13.870	4.129
13.880	4.127
13.890	4.128
13.900	4.133
13.910	4.142
13.920	4.154
13.930	4.167
13.940	4.181
13.950	4.193
13.960	4.204
13.970	4.210
13.980	4.213
13.990	4.210
14.000	4.203
14.010	4.193
14.020	4.179
14.030	4.163
14.040	4.147
14.050	4.131
14.060	4.116
14.070	4.103
14.080	4.091
14.090	4.079
14.100	4.068
14.110	4.057
14.120	4.044
14.130	4.028
14.140	4.010
14.150	3.989
14.160	3.965
14.170	3.938
14.180	3.910
14.190	3.882
14.200	3.854
14.210	3.830
14.220	3.808
14.230	3.791
14.240	3.780
14.250	3.773
14.260	3.771
14.270	3.773
14.280	3.778
14.290	3.786
14.300	3.794
14.310	3.803
14.320	3.812
14.330	3.819
14.340	3.825
14.350	3.829
14.360	3.833
14.370	3.835
14.380	3.837
14.390	3.839
14.400	3.841
14.410	3.843
14.420	3.846
14.430	3.849
14.440	3.851
14.450	3.852
14.460	3.852
14.470	3.850
14.480	3.846
14.490	3.840
14.500	3.832
14.510	3.822
14.520	3.811
14.530	3.799
14.540	3.787
14.550	3.776
14.560	3.765
14.570	3.756
14.580	3.748
14.590	3.741
14.600	3.736
14.610	3.732
14.620	3.728
14.630	3.724
14.640	3.721
14.650	3.717
14.660	3.712
14.670	3.707
14.680	3.702
14.690	3.695
14.700	3.689
14.710	3.682
14.720	3.675
14.730	3.668
14.740	3.662
14.750	3.655
14.760	3.649
14.770	3.643
14.780	3.637
14.790	3.633
14.800	3.629
14.810	3.627
14.820	3.628
14.830	3.632
14.840	3.639
14.850	3.650
14.860	3.666
14.870	3.685
14.880	3.709
14.890	3.735
14.900	3.763
14.910	3.792
14.920	3.819
14.930	3.843
14.940	3.862
14.950	3.875
14.960	3.882
14.970	3.881
14.980	3.873
14.990	3.858
15.000	3.839
15.010	3.816
15.020	3.792
15.030	3.769
15.040	3.749
15.050	3.733
15.060	3.724
15.070	3.721
15.080	3.726
15.090	3.737
15.100	3.754
15.110	3.775
15.120	3.799
15.130	3.825
15.140	3.849
15.150	3.872
15.160	3.891
15.170	3.906
15.180	3.918
15.190	3.926
15.200	3.930
15.210	3.932
15.220	3.932
15.230	3.932
15.240	3.931
15.250	3.931
15.260	3.931
15.270	3.933
15.280	3.935
15.290	3.937
15.300	3.940
15.310	3.942
15.320	3.944
15.330	3.945
15.340	3.946
15.350	3.946
15.360	3.945
15.370	3.945
15.380	3.945
15.390	3.945
15.400	3.945
15.410	3.946
15.420	3.948
15.430	3.948
15.440	3.948
15.450	3.946
15.460	3.942
15.470	3.936
15.480	3.927
15.490	3.916
15.500	3.902
15.510	3.888
15.520	3.873
15.530	3.860
15.540	3.849
15.550	3.841
15.560	3.837
15.570	3.838
15.580	3.844
15.590	3.854
15.600	3.867
15.610	3.882
15.620	3.898
15.630	3.913
15.640	3.926
15.650	3.935
15.660	3.940
15.670	3.940
15.680	3.935
15.690	3.926
15.700	3.915
15.710	3.903
15.720	3.890
15.730	3.880
15.740	3.874
15.750	3.872
15.760	3.876
15.770	3.886
15.780	3.901
15.790	3.922
15.800	3.946
15.810	3.973
15.820	4.000
15.830	4.027
15.840	4.052
15.850	4.074
15.860	4.092
15.870	4.105
15.880	4.114
15.890	4.120
15.900	4.122
15.910	4.121
15.920	4.118
15.930	4.115
15.940	4.111
15.950	4.107
15.960	4.103
15.970	4.099
15.980	4.096
15.990	4.092
16.000	4.089
16.010	4.086
16.020	4.082
16.030	4.079
16.040	4.075
16.050	4.073
16.060	4.072
16.070	4.072
16.080	4.074
16.090	4.079
16.100	4.086
16.110	4.095
16.120	4.106
16.130	4.118
