Time(s)	V(m/s)
0.000	26.653
0.010	26.693
0.020	26.737
0.030	26.780
0.040	26.824
0.050	26.868
0.060	26.912
0.070	26.958
0.080	27.009
0.090	27.067
0.100	27.133
0.110	27.209
0.120	27.292
0.130	27.381
0.140	27.471
0.150	27.556
0.160	27.631
0.170	27.688
0.180	27.722
0.190	27.728
0.200	27.706
0.210	27.654
0.220	27.578
0.230	27.482
0.240	27.377
0.250	27.271
0.260	27.177
0.270	27.104
0.280	27.061
0.290	27.057
0.300	27.094
0.310	27.175
0.320	27.295
0.330	27.451
0.340	27.634
0.350	27.836
0.360	28.046
0.370	28.255
0.380	28.454
0.390	28.637
0.400	28.797
0.410	28.932
0.420	29.039
0.430	29.118
0.440	29.170
0.450	29.194
0.460	29.192
0.470	29.162
0.480	29.105
0.490	29.020
0.500	28.907
0.510	28.764
0.520	28.593
0.530	28.397
0.540	28.181
0.550	27.951
0.560	27.716
0.570	27.487
0.580	27.275
0.590	27.092
0.600	26.947
0.610	26.849
0.620	26.802
0.630	26.808
0.640	26.863
0.650	26.961
0.660	27.093
0.670	27.244
0.680	27.403
0.690	27.555
0.700	27.687
0.710	27.791
0.720	27.860
0.730	27.892
0.740	27.889
0.750	27.856
0.760	27.801
0.770	27.735
0.780	27.666
0.790	27.605
0.800	27.558
0.810	27.530
0.820	27.521
0.830	27.528
0.840	27.547
0.850	27.569
0.860	27.585
0.870	27.589
0.880	27.572
0.890	27.530
0.900	27.461
0.910	27.367
0.920	27.253
0.930	27.128
0.940	26.999
0.950	26.878
0.960	26.772
0.970	26.691
0.980	26.639
0.990	26.617
1.000	26.624
1.010	26.656
1.020	26.706
1.030	26.765
1.040	26.825
1.050	26.879
1.060	26.921
1.070	26.949
1.080	26.962
1.090	26.965
1.100	26.964
1.110	26.966
1.120	26.979
1.130	27.012
1.140	27.070
1.150	27.157
1.160	27.271
1.170	27.408
1.180	27.562
1.190	27.721
1.200	27.873
1.210	28.005
1.220	28.106
1.230	28.167
1.240	28.180
1.250	28.143
1.260	28.059
1.270	27.933
1.280	27.774
1.290	27.595
1.300	27.408
1.310	27.226
1.320	27.060
1.330	26.918
1.340	26.804
1.350	26.720
1.360	26.663
1.370	26.627
1.380	26.604
1.390	26.585
1.400	26.561
1.410	26.523
1.420	26.466
1.430	26.387
1.440	26.285
1.450	26.164
1.460	26.028
1.470	25.885
1.480	25.743
1.490	25.609
1.500	25.489
1.510	25.389
1.520	25.310
1.530	25.252
1.540	25.213
1.550	25.189
1.560	25.173
1.570	25.161
1.580	25.147
1.590	25.126
1.600	25.096
1.610	25.057
1.620	25.009
1.630	24.956
1.640	24.903
1.650	24.853
1.660	24.812
1.670	24.784
1.680	24.771
1.690	24.777
1.700	24.799
1.710	24.836
1.720	24.885
1.730	24.943
1.740	25.004
1.750	25.064
1.760	25.121
1.770	25.172
1.780	25.215
1.790	25.251
1.800	25.281
1.810	25.306
1.820	25.328
1.830	25.349
1.840	25.369
1.850	25.389
1.860	25.408
1.870	25.425
1.880	25.437
1.890	25.442
1.900	25.437
1.910	25.419
1.920	25.389
1.930	25.345
1.940	25.289
1.950	25.223
1.960	25.151
1.970	25.077
1.980	25.004
1.990	24.938
2.000	24.880
2.010	24.833
2.020	24.796
2.030	24.769
2.040	24.750
2.050	24.735
2.060	24.719
2.070	24.699
2.080	24.671
2.090	24.633
2.100	24.582
2.110	24.518
2.120	24.444
2.130	24.362
2.140	24.275
2.150	24.188
2.160	24.106
2.170	24.030
2.180	23.966
2.190	23.915
2.200	23.878
2.210	23.854
2.220	23.842
2.230	23.839
2.240	23.843
2.250	23.851
2.260	23.861
2.270	23.869
2.280	23.876
2.290	23.880
2.300	23.881
2.310	23.878
2.320	23.872
2.330	23.864
2.340	23.853
2.350	23.838
2.360	23.819
2.370	23.795
2.380	23.765
2.390	23.730
2.400	23.689
2.410	23.643
2.420	23.597
2.430	23.553
2.440	23.517
2.450	23.493
2.460	23.489
2.470	23.509
2.480	23.559
2.490	23.639
2.500	23.752
2.510	23.896
2.520	24.064
2.530	24.251
2.540	24.447
2.550	24.641
2.560	24.823
2.570	24.983
2.580	25.112
2.590	25.202
2.600	25.251
2.610	25.258
2.620	25.226
2.630	25.161
2.640	25.072
2.650	24.969
2.660	24.861
2.670	24.760
2.680	24.674
2.690	24.609
2.700	24.570
2.710	24.556
2.720	24.566
2.730	24.596
2.740	24.639
2.750	24.689
2.760	24.737
2.770	24.778
2.780	24.807
2.790	24.819
2.800	24.816
2.810	24.796
2.820	24.765
2.830	24.727
2.840	24.686
2.850	24.650
2.860	24.623
2.870	24.609
2.880	24.611
2.890	24.631
2.900	24.669
2.910	24.722
2.920	24.789
2.930	24.865
2.940	24.949
2.950	25.036
2.960	25.125
2.970	25.212
2.980	25.297
2.990	25.379
3.000	25.457
3.010	25.531
3.020	25.600
3.030	25.662
3.040	25.717
3.050	25.762
3.060	25.794
3.070	25.812
3.080	25.812
3.090	25.794
3.100	25.758
3.110	25.704
3.120	25.636
3.130	25.557
3.140	25.473
3.150	25.390
3.160	25.316
3.170	25.255
3.180	25.214
3.190	25.195
3.200	25.201
3.210	25.231
3.220	25.281
3.230	25.347
3.240	25.421
3.250	25.496
3.260	25.563
3.270	25.616
3.280	25.648
3.290	25.655
3.300	25.635
3.310	25.589
3.320	25.521
3.330	25.435
3.340	25.339
3.350	25.241
3.360	25.148
3.370	25.070
3.380	25.011
3.390	24.977
3.400	24.969
3.410	24.987
3.420	25.029
3.430	25.091
3.440	25.166
3.450	25.248
3.460	25.330
3.470	25.404
3.480	25.465
3.490	25.508
3.500	25.529
3.510	25.527
3.520	25.501
3.530	25.453
3.540	25.386
3.550	25.304
3.560	25.211
3.570	25.112
3.580	25.014
3.590	24.921
3.600	24.839
3.610	24.773
3.620	24.727
3.630	24.704
3.640	24.708
3.650	24.739
3.660	24.797
3.670	24.882
3.680	24.990
3.690	25.118
3.700	25.261
3.710	25.413
3.720	25.567
3.730	25.716
3.740	25.854
3.750	25.974
3.760	26.071
3.770	26.142
3.780	26.183
3.790	26.196
3.800	26.181
3.810	26.141
3.820	26.080
3.830	26.002
3.840	25.912
3.850	25.816
3.860	25.718
3.870	25.621
3.880	25.528
3.890	25.442
3.900	25.361
3.910	25.287
3.920	25.219
3.930	25.156
3.940	25.098
3.950	25.045
3.960	24.998
3.970	24.958
3.980	24.927
3.990	24.906
4.000	24.898
4.010	24.903
4.020	24.923
4.030	24.957
4.040	25.003
4.050	25.058
4.060	25.117
4.070	25.175
4.080	25.227
4.090	25.266
4.100	25.288
4.110	25.289
4.120	25.265
4.130	25.217
4.140	25.146
4.150	25.053
4.160	24.945
4.170	24.826
4.180	24.703
4.190	24.582
4.200	24.469
4.210	24.368
4.220	24.284
4.230	24.217
4.240	24.170
4.250	24.140
4.260	24.125
4.270	24.125
4.280	24.134
4.290	24.151
4.300	24.173
4.310	24.198
4.320	24.224
4.330	24.249
4.340	24.273
4.350	24.295
4.360	24.313
4.370	24.326
4.380	24.330
4.390	24.323
4.400	24.301
4.410	24.262
4.420	24.201
4.430	24.118
4.440	24.010
4.450	23.878
4.460	23.726
4.470	23.559
4.480	23.383
4.490	23.207
4.500	23.041
4.510	22.894
4.520	22.776
4.530	22.696
4.540	22.659
4.550	22.669
4.560	22.725
4.570	22.826
4.580	22.965
4.590	23.132
4.600	23.317
4.610	23.508
4.620	23.693
4.630	23.859
4.640	23.998
4.650	24.101
4.660	24.163
4.670	24.183
4.680	24.162
4.690	24.105
4.700	24.017
4.710	23.908
4.720	23.787
4.730	23.663
4.740	23.546
4.750	23.444
4.760	23.363
4.770	23.309
4.780	23.285
4.790	23.290
4.800	23.324
4.810	23.382
4.820	23.461
4.830	23.555
4.840	23.656
4.850	23.758
4.860	23.855
4.870	23.938
4.880	24.004
4.890	24.048
4.900	24.066
4.910	24.059
4.920	24.026
4.930	23.970
4.940	23.895
4.950	23.809
4.960	23.716
4.970	23.626
4.980	23.547
4.990	23.484
5.000	23.446
5.010	23.437
5.020	23.458
5.030	23.511
5.040	23.593
5.050	23.699
5.060	23.823
5.070	23.957
5.080	24.092
5.090	24.219
5.100	24.331
5.110	24.421
5.120	24.486
5.130	24.524
5.140	24.535
5.150	24.524
5.160	24.495
5.170	24.455
5.180	24.411
5.190	24.369
5.200	24.335
5.210	24.312
5.220	24.303
5.230	24.305
5.240	24.317
5.250	24.333
5.260	24.348
5.270	24.356
5.280	24.352
5.290	24.332
5.300	24.294
5.310	24.238
5.320	24.166
5.330	24.085
5.340	24.000
5.350	23.919
5.360	23.850
5.370	23.799
5.380	23.772
5.390	23.773
5.400	23.800
5.410	23.853
5.420	23.925
5.430	24.011
5.440	24.102
5.450	24.189
5.460	24.264
5.470	24.322
5.480	24.357
5.490	24.368
5.500	24.356
5.510	24.325
5.520	24.281
5.530	24.231
5.540	24.183
5.550	24.144
5.560	24.122
5.570	24.120
5.580	24.142
5.590	24.187
5.600	24.253
5.610	24.335
5.620	24.426
5.630	24.520
5.640	24.609
5.650	24.686
5.660	24.747
5.670	24.788
5.680	24.807
5.690	24.805
5.700	24.785
5.710	24.751
5.720	24.707
5.730	24.660
5.740	24.616
5.750	24.580
5.760	24.556
5.770	24.549
5.780	24.560
5.790	24.591
5.800	24.642
5.810	24.712
5.820	24.800
5.830	24.902
5.840	25.015
5.850	25.137
5.860	25.263
5.870	25.388
5.880	25.509
5.890	25.620
5.900	25.718
5.910	25.797
5.920	25.854
5.930	25.888
5.940	25.896
5.950	25.880
5.960	25.842
5.970	25.785
5.980	25.716
5.990	25.641
6.000	25.568
6.010	25.504
6.020	25.457
6.030	25.432
6.040	25.432
6.050	25.458
6.060	25.508
6.070	25.577
6.080	25.658
6.090	25.742
6.100	25.819
6.110	25.880
6.120	25.916
6.130	25.922
6.140	25.894
6.150	25.833
6.160	25.744
6.170	25.635
6.180	25.514
6.190	25.395
6.200	25.289
6.210	25.207
6.220	25.157
6.230	25.145
6.240	25.171
6.250	25.232
6.260	25.319
6.270	25.422
6.280	25.526
6.290	25.616
6.300	25.677
6.310	25.697
6.320	25.665
6.330	25.578
6.340	25.434
6.350	25.239
6.360	25.004
6.370	24.742
6.380	24.468
6.390	24.201
6.400	23.956
6.410	23.747
6.420	23.585
6.430	23.475
6.440	23.417
6.450	23.408
6.460	23.438
6.470	23.495
6.480	23.564
6.490	23.632
6.500	23.683
6.510	23.706
6.520	23.693
6.530	23.639
6.540	23.546
6.550	23.416
6.560	23.257
6.570	23.081
6.580	22.898
6.590	22.721
6.600	22.561
6.610	22.426
6.620	22.324
6.630	22.256
6.640	22.224
6.650	22.224
6.660	22.252
6.670	22.299
6.680	22.358
6.690	22.422
6.700	22.483
6.710	22.535
6.720	22.574
6.730	22.598
6.740	22.607
6.750	22.602
6.760	22.586
6.770	22.561
6.780	22.532
6.790	22.501
6.800	22.472
6.810	22.447
6.820	22.427
6.830	22.414
6.840	22.407
6.850	22.407
6.860	22.411
6.870	22.421
6.880	22.434
6.890	22.451
6.900	22.471
6.910	22.495
6.920	22.520
6.930	22.548
6.940	22.577
6.950	22.605
6.960	22.631
6.970	22.653
6.980	22.666
6.990	22.670
7.000	22.660
7.010	22.634
7.020	22.591
7.030	22.530
7.040	22.452
7.050	22.359
7.060	22.255
7.070	22.143
7.080	22.031
7.090	21.925
7.100	21.832
7.110	21.757
7.120	21.707
7.130	21.685
7.140	21.694
7.150	21.734
7.160	21.803
7.170	21.895
7.180	22.006
7.190	22.126
7.200	22.246
7.210	22.358
7.220	22.452
7.230	22.521
7.240	22.559
7.250	22.562
7.260	22.530
7.270	22.465
7.280	22.372
7.290	22.259
7.300	22.135
7.310	22.010
7.320	21.895
7.330	21.797
7.340	21.726
7.350	21.685
7.360	21.676
7.370	21.698
7.380	21.747
7.390	21.815
7.400	21.893
7.410	21.971
7.420	22.040
7.430	22.090
7.440	22.115
7.450	22.112
7.460	22.081
7.470	22.026
7.480	21.953
7.490	21.872
7.500	21.793
7.510	21.727
7.520	21.686
7.530	21.676
7.540	21.704
7.550	21.769
7.560	21.869
7.570	21.996
7.580	22.139
7.590	22.287
7.600	22.425
7.610	22.540
7.620	22.621
7.630	22.660
7.640	22.654
7.650	22.603
7.660	22.514
7.670	22.398
7.680	22.267
7.690	22.137
7.700	22.025
7.710	21.945
7.720	21.908
7.730	21.921
7.740	21.986
7.750	22.101
7.760	22.257
7.770	22.443
7.780	22.643
7.790	22.840
7.800	23.019
7.810	23.165
7.820	23.267
7.830	23.320
7.840	23.320
7.850	23.272
7.860	23.181
7.870	23.059
7.880	22.917
7.890	22.769
7.900	22.625
7.910	22.494
7.920	22.385
7.930	22.299
7.940	22.236
7.950	22.193
7.960	22.166
7.970	22.147
7.980	22.132
7.990	22.115
8.000	22.095
8.010	22.072
8.020	22.049
8.030	22.031
8.040	22.025
8.050	22.038
8.060	22.078
8.070	22.149
8.080	22.254
8.090	22.391
8.100	22.555
8.110	22.738
8.120	22.928
8.130	23.113
8.140	23.278
8.150	23.411
8.160	23.501
8.170	23.541
8.180	23.529
8.190	23.465
8.200	23.355
8.210	23.211
8.220	23.044
8.230	22.868
8.240	22.697
8.250	22.543
8.260	22.416
8.270	22.323
8.280	22.264
8.290	22.238
8.300	22.239
8.310	22.259
8.320	22.288
8.330	22.316
8.340	22.334
8.350	22.335
8.360	22.315
8.370	22.272
8.380	22.209
8.390	22.130
8.400	22.042
8.410	21.953
8.420	21.871
8.430	21.803
8.440	21.755
8.450	21.729
8.460	21.727
8.470	21.746
8.480	21.784
8.490	21.835
8.500	21.893
8.510	21.954
8.520	22.013
8.530	22.067
8.540	22.115
8.550	22.158
8.560	22.196
8.570	22.232
8.580	22.270
8.590	22.312
8.600	22.361
8.610	22.416
8.620	22.476
8.630	22.541
8.640	22.605
8.650	22.666
8.660	22.718
8.670	22.758
8.680	22.783
8.690	22.792
8.700	22.784
8.710	22.762
8.720	22.730
8.730	22.692
8.740	22.653
8.750	22.619
8.760	22.592
8.770	22.577
8.780	22.575
8.790	22.585
8.800	22.606
8.810	22.636
8.820	22.669
8.830	22.704
8.840	22.737
8.850	22.764
8.860	22.787
8.870	22.805
8.880	22.819
8.890	22.834
8.900	22.851
8.910	22.873
8.920	22.904
8.930	22.943
8.940	22.990
8.950	23.043
8.960	23.095
8.970	23.143
8.980	23.180
8.990	23.198
9.000	23.193
9.010	23.160
9.020	23.097
9.030	23.004
9.040	22.885
9.050	22.745
9.060	22.589
9.070	22.427
9.080	22.266
9.090	22.114
9.100	21.975
9.110	21.855
9.120	21.753
9.130	21.670
9.140	21.602
9.150	21.545
9.160	21.494
9.170	21.443
9.180	21.388
9.190	21.328
9.200	21.261
9.210	21.190
9.220	21.118
9.230	21.050
9.240	20.993
9.250	20.953
9.260	20.934
9.270	20.940
9.280	20.971
9.290	21.026
9.300	21.101
9.310	21.189
9.320	21.281
9.330	21.370
9.340	21.447
9.350	21.506
9.360	21.540
9.370	21.550
9.380	21.535
9.390	21.500
9.400	21.453
9.410	21.401
9.420	21.353
9.430	21.318
9.440	21.303
9.450	21.314
9.460	21.352
9.470	21.416
9.480	21.503
9.490	21.606
9.500	21.717
9.510	21.829
9.520	21.933
9.530	22.022
9.540	22.093
9.550	22.143
9.560	22.174
9.570	22.189
9.580	22.194
9.590	22.196
9.600	22.203
9.610	22.219
9.620	22.250
9.630	22.297
9.640	22.360
9.650	22.437
9.660	22.520
9.670	22.604
9.680	22.679
9.690	22.739
9.700	22.778
9.710	22.791
9.720	22.777
9.730	22.739
9.740	22.680
9.750	22.610
9.760	22.536
9.770	22.470
9.780	22.421
9.790	22.398
9.800	22.408
9.810	22.453
9.820	22.534
9.830	22.647
9.840	22.786
9.850	22.941
9.860	23.102
9.870	23.257
9.880	23.395
9.890	23.508
9.900	23.586
9.910	23.626
9.920	23.626
9.930	23.587
9.940	23.514
9.950	23.412
9.960	23.290
9.970	23.158
9.980	23.023
9.990	22.895
10.000	22.782
10.010	22.690
10.020	22.623
10.030	22.584
10.040	22.574
10.050	22.589
10.060	22.629
10.070	22.688
10.080	22.760
10.090	22.839
10.100	22.918
10.110	22.990
10.120	23.050
10.130	23.090
10.140	23.108
10.150	23.099
10.160	23.062
10.170	22.999
10.180	22.912
10.190	22.804
10.200	22.683
10.210	22.555
10.220	22.427
10.230	22.308
10.240	22.203
10.250	22.117
10.260	22.055
10.270	22.015
10.280	21.997
10.290	21.996
10.300	22.006
10.310	22.020
10.320	22.029
10.330	22.027
10.340	22.008
10.350	21.966
10.360	21.903
10.370	21.818
10.380	21.717
10.390	21.608
10.400	21.498
10.410	21.399
10.420	21.318
10.430	21.265
10.440	21.244
10.450	21.259
10.460	21.308
10.470	21.387
10.480	21.489
10.490	21.603
10.500	21.720
10.510	21.829
10.520	21.920
10.530	21.987
10.540	22.026
10.550	22.037
10.560	22.024
10.570	21.994
10.580	21.957
10.590	21.922
10.600	21.900
10.610	21.901
10.620	21.929
10.630	21.989
10.640	22.078
10.650	22.193
10.660	22.326
10.670	22.464
10.680	22.598
10.690	22.715
10.700	22.806
10.710	22.863
10.720	22.883
10.730	22.865
10.740	22.813
10.750	22.735
10.760	22.639
10.770	22.536
10.780	22.437
10.790	22.348
10.800	22.278
10.810	22.227
10.820	22.196
10.830	22.181
10.840	22.174
10.850	22.170
10.860	22.160
10.870	22.136
10.880	22.096
10.890	22.038
10.900	21.964
10.910	21.881
10.920	21.796
10.930	21.721
10.940	21.667
10.950	21.644
10.960	21.659
10.970	21.717
10.980	21.815
10.990	21.949
11.000	22.108
11.010	22.277
11.020	22.442
11.030	22.583
11.040	22.685
11.050	22.735
11.060	22.725
11.070	22.652
11.080	22.517
11.090	22.332
11.100	22.110
11.110	21.868
11.120	21.627
11.130	21.407
11.140	21.226
11.150	21.096
11.160	21.028
11.170	21.025
11.180	21.082
11.190	21.191
11.200	21.339
11.210	21.510
11.220	21.685
11.230	21.848
11.240	21.984
11.250	22.082
11.260	22.135
11.270	22.143
11.280	22.107
11.290	22.034
11.300	21.936
11.310	21.823
11.320	21.708
11.330	21.600
11.340	21.509
11.350	21.440
11.360	21.396
11.370	21.376
11.380	21.378
11.390	21.397
11.400	21.428
11.410	21.465
11.420	21.505
11.430	21.546
11.440	21.586
11.450	21.628
11.460	21.673
11.470	21.727
11.480	21.794
11.490	21.876
11.500	21.978
11.510	22.098
11.520	22.235
11.530	22.386
11.540	22.544
11.550	22.703
11.560	22.854
11.570	22.990
11.580	23.103
11.590	23.188
11.600	23.241
11.610	23.262
11.620	23.250
11.630	23.211
11.640	23.149
11.650	23.070
11.660	22.983
11.670	22.892
11.680	22.807
11.690	22.731
11.700	22.670
11.710	22.626
11.720	22.601
11.730	22.596
11.740	22.611
11.750	22.644
11.760	22.693
11.770	22.757
11.780	22.832
11.790	22.915
11.800	23.002
11.810	23.090
11.820	23.172
11.830	23.245
11.840	23.303
11.850	23.340
11.860	23.353
11.870	23.338
11.880	23.292
11.890	23.217
11.900	23.114
11.910	22.987
11.920	22.844
11.930	22.692
11.940	22.541
11.950	22.399
11.960	22.276
11.970	22.178
11.980	22.110
11.990	22.074
12.000	22.068
12.010	22.087
12.020	22.124
12.030	22.170
12.040	22.214
12.050	22.247
12.060	22.259
12.070	22.244
12.080	22.198
12.090	22.123
12.100	22.021
12.110	21.900
12.120	21.769
12.130	21.639
12.140	21.521
12.150	21.424
12.160	21.357
12.170	21.324
12.180	21.326
12.190	21.359
12.200	21.417
12.210	21.490
12.220	21.568
12.230	21.637
12.240	21.688
12.250	21.710
12.260	21.697
12.270	21.647
12.280	21.560
12.290	21.442
12.300	21.300
12.310	21.145
12.320	20.989
12.330	20.843
12.340	20.719
12.350	20.626
12.360	20.570
12.370	20.554
12.380	20.578
12.390	20.638
12.400	20.730
12.410	20.846
12.420	20.976
12.430	21.111
12.440	21.243
12.450	21.363
12.460	21.465
12.470	21.544
12.480	21.595
12.490	21.616
12.500	21.607
12.510	21.567
12.520	21.499
12.530	21.403
12.540	21.284
12.550	21.146
12.560	20.993
12.570	20.833
12.580	20.673
12.590	20.521
12.600	20.384
12.610	20.273
12.620	20.194
12.630	20.155
12.640	20.160
12.650	20.210
12.660	20.306
12.670	20.443
12.680	20.614
12.690	20.809
12.700	21.018
12.710	21.227
12.720	21.424
12.730	21.598
12.740	21.740
12.750	21.845
12.760	21.910
12.770	21.937
12.780	21.931
12.790	21.899
12.800	21.852
12.810	21.801
12.820	21.754
12.830	21.722
12.840	21.711
12.850	21.723
12.860	21.758
12.870	21.813
12.880	21.883
12.890	21.960
12.900	22.035
12.910	22.102
12.920	22.153
12.930	22.184
12.940	22.194
12.950	22.183
12.960	22.155
12.970	22.115
12.980	22.069
12.990	22.023
13.000	21.982
13.010	21.949
13.020	21.925
13.030	21.909
13.040	21.898
13.050	21.886
13.060	21.869
13.070	21.841
13.080	21.798
13.090	21.739
13.100	21.665
13.110	21.580
13.120	21.492
13.130	21.409
13.140	21.341
13.150	21.298
13.160	21.289
13.170	21.318
13.180	21.388
13.190	21.495
13.200	21.633
13.210	21.790
13.220	21.952
13.230	22.104
13.240	22.232
13.250	22.321
13.260	22.362
13.270	22.348
13.280	22.282
13.290	22.167
13.300	22.013
13.310	21.836
13.320	21.652
13.330	21.476
13.340	21.324
13.350	21.207
13.360	21.134
13.370	21.105
13.380	21.115
13.390	21.156
13.400	21.215
13.410	21.275
13.420	21.320
13.430	21.335
13.440	21.308
13.450	21.233
13.460	21.109
13.470	20.940
13.480	20.737
13.490	20.515
13.500	20.290
13.510	20.080
13.520	19.904
13.530	19.775
13.540	19.703
13.550	19.691
13.560	19.738
13.570	19.838
13.580	19.979
13.590	20.145
13.600	20.323
13.610	20.496
13.620	20.651
13.630	20.780
13.640	20.877
13.650	20.942
13.660	20.980
13.670	20.997
13.680	21.006
13.690	21.016
13.700	21.039
13.710	21.082
13.720	21.151
13.730	21.248
13.740	21.369
13.750	21.510
13.760	21.661
13.770	21.812
13.780	21.953
13.790	22.075
13.800	22.170
13.810	22.235
13.820	22.269
13.830	22.277
13.840	22.263
13.850	22.236
13.860	22.206
13.870	22.181
13.880	22.170
13.890	22.178
13.900	22.207
13.910	22.256
13.920	22.322
13.930	22.398
13.940	22.477
13.950	22.550
13.960	22.608
13.970	22.647
13.980	22.660
13.990	22.647
14.000	22.609
14.010	22.548
14.020	22.471
14.030	22.383
14.040	22.291
14.050	22.201
14.060	22.117
14.070	22.041
14.080	21.972
14.090	21.909
14.100	21.847
14.110	21.783
14.120	21.709
14.130	21.622
14.140	21.519
14.150	21.399
14.160	21.262
14.170	21.111
14.180	20.952
14.190	20.792
14.200	20.638
14.210	20.498
14.220	20.378
14.230	20.283
14.240	20.215
14.250	20.177
14.260	20.166
14.270	20.179
14.280	20.210
14.290	20.253
14.300	20.304
14.310	20.355
14.320	20.403
14.330	20.445
14.340	20.479
14.350	20.505
14.360	20.524
14.370	20.538
14.380	20.550
14.390	20.561
14.400	20.573
14.410	20.587
14.420	20.603
14.430	20.618
14.440	20.631
14.450	20.639
14.460	20.639
14.470	20.629
14.480	20.607
14.490	20.573
14.500	20.528
14.510	20.472
14.520	20.409
14.530	20.342
14.540	20.274
14.550	20.208
14.560	20.147
14.570	20.094
14.580	20.049
14.590	20.012
14.600	19.983
14.610	19.958
14.620	19.938
14.630	19.919
14.640	19.899
14.650	19.876
14.660	19.851
14.670	19.822
14.680	19.789
14.690	19.754
14.700	19.717
14.710	19.678
14.720	19.639
14.730	19.601
14.740	19.563
14.750	19.526
14.760	19.490
14.770	19.456
14.780	19.425
14.790	19.398
14.800	19.378
14.810	19.367
14.820	19.370
14.830	19.390
14.840	19.431
14.850	19.494
14.860	19.582
14.870	19.694
14.880	19.827
14.890	19.976
14.900	20.136
14.910	20.297
14.920	20.451
14.930	20.587
14.940	20.696
14.950	20.771
14.960	20.807
14.970	20.801
