Time(s)	V(m/s)
0.000	7.118
0.010	7.122
0.020	7.126
0.030	7.130
0.040	7.134
0.050	7.138
0.060	7.142
0.070	7.146
0.080	7.151
0.090	7.156
0.100	7.162
0.110	7.169
0.120	7.177
0.130	7.185
0.140	7.193
0.150	7.201
0.160	7.208
0.170	7.213
0.180	7.216
0.190	7.217
0.200	7.214
0.210	7.210
0.220	7.203
0.230	7.194
0.240	7.184
0.250	7.175
0.260	7.166
0.270	7.159
0.280	7.155
0.290	7.155
0.300	7.158
0.310	7.166
0.320	7.177
0.330	7.191
0.340	7.208
0.350	7.226
0.360	7.245
0.370	7.265
0.380	7.283
0.390	7.300
0.400	7.314
0.410	7.327
0.420	7.336
0.430	7.344
0.440	7.348
0.450	7.350
0.460	7.350
0.470	7.347
0.480	7.342
0.490	7.334
0.500	7.324
0.510	7.311
0.520	7.295
0.530	7.277
0.540	7.257
0.550	7.236
0.560	7.214
0.570	7.193
0.580	7.173
0.590	7.157
0.600	7.143
0.610	7.134
0.620	7.130
0.630	7.130
0.640	7.135
0.650	7.144
0.660	7.156
0.670	7.170
0.680	7.184
0.690	7.198
0.700	7.210
0.710	7.220
0.720	7.226
0.730	7.229
0.740	7.228
0.750	7.225
0.760	7.220
0.770	7.214
0.780	7.208
0.790	7.202
0.800	7.198
0.810	7.195
0.820	7.194
0.830	7.194
0.840	7.196
0.850	7.198
0.860	7.199
0.870	7.200
0.880	7.198
0.890	7.194
0.900	7.188
0.910	7.179
0.920	7.168
0.930	7.157
0.940	7.145
0.950	7.133
0.960	7.124
0.970	7.116
0.980	7.111
0.990	7.109
1.000	7.110
1.010	7.113
1.020	7.117
1.030	7.122
1.040	7.128
1.050	7.133
1.060	7.136
1.070	7.139
1.080	7.140
1.090	7.140
1.100	7.140
1.110	7.140
1.120	7.141
1.130	7.144
1.140	7.149
1.150	7.157
1.160	7.167
1.170	7.180
1.180	7.194
1.190	7.208
1.200	7.222
1.210	7.234
1.220	7.243
1.230	7.249
1.240	7.250
1.250	7.246
1.260	7.238
1.270	7.227
1.280	7.212
1.290	7.195
1.300	7.178
1.310	7.161
1.320	7.146
1.330	7.133
1.340	7.122
1.350	7.114
1.360	7.109
1.370	7.105
1.380	7.103
1.390	7.101
1.400	7.099
1.410	7.095
1.420	7.090
1.430	7.082
1.440	7.073
1.450	7.061
1.460	7.049
1.470	7.036
1.480	7.022
1.490	7.010
1.500	6.999
1.510	6.989
1.520	6.982
1.530	6.977
1.540	6.973
1.550	6.970
1.560	6.969
1.570	6.968
1.580	6.966
1.590	6.964
1.600	6.961
1.610	6.957
1.620	6.953
1.630	6.948
1.640	6.943
1.650	6.938
1.660	6.934
1.670	6.931
1.680	6.930
1.690	6.930
1.700	6.932
1.710	6.936
1.720	6.940
1.730	6.945
1.740	6.951
1.750	6.956
1.760	6.961
1.770	6.966
1.780	6.970
1.790	6.973
1.800	6.975
1.810	6.978
1.820	6.979
1.830	6.981
1.840	6.983
1.850	6.985
1.860	6.986
1.870	6.988
1.880	6.989
1.890	6.989
1.900	6.988
1.910	6.987
1.920	6.984
1.930	6.979
1.940	6.974
1.950	6.968
1.960	6.961
1.970	6.954
1.980	6.948
1.990	6.941
2.000	6.936
2.010	6.931
2.020	6.928
2.030	6.925
2.040	6.923
2.050	6.922
2.060	6.920
2.070	6.918
2.080	6.916
2.090	6.912
2.100	6.907
2.110	6.901
2.120	6.894
2.130	6.887
2.140	6.878
2.150	6.870
2.160	6.863
2.170	6.856
2.180	6.850
2.190	6.845
2.200	6.841
2.210	6.839
2.220	6.838
2.230	6.837
2.240	6.837
2.250	6.838
2.260	6.839
2.270	6.840
2.280	6.840
2.290	6.840
2.300	6.840
2.310	6.840
2.320	6.839
2.330	6.838
2.340	6.837
2.350	6.836
2.360	6.834
2.370	6.832
2.380	6.829
2.390	6.825
2.400	6.822
2.410	6.817
2.420	6.813
2.430	6.809
2.440	6.805
2.450	6.803
2.460	6.803
2.470	6.805
2.480	6.809
2.490	6.816
2.500	6.827
2.510	6.840
2.520	6.855
2.530	6.872
2.540	6.890
2.550	6.908
2.560	6.925
2.570	6.939
2.580	6.951
2.590	6.959
2.600	6.963
2.610	6.964
2.620	6.961
2.630	6.955
2.640	6.947
2.650	6.937
2.660	6.927
2.670	6.918
2.680	6.910
2.690	6.904
2.700	6.900
2.710	6.899
2.720	6.900
2.730	6.902
2.740	6.906
2.750	6.911
2.760	6.915
2.770	6.919
2.780	6.921
2.790	6.922
2.800	6.922
2.810	6.920
2.820	6.917
2.830	6.914
2.840	6.910
2.850	6.906
2.860	6.904
2.870	6.903
2.880	6.903
2.890	6.905
2.900	6.908
2.910	6.913
2.920	6.919
2.930	6.926
2.940	6.933
2.950	6.941
2.960	6.949
2.970	6.957
2.980	6.965
2.990	6.972
3.000	6.980
3.010	6.986
3.020	6.993
3.030	6.998
3.040	7.003
3.050	7.007
3.060	7.010
3.070	7.012
3.080	7.012
3.090	7.010
3.100	7.006
3.110	7.001
3.120	6.995
3.130	6.988
3.140	6.980
3.150	6.972
3.160	6.965
3.170	6.960
3.180	6.956
3.190	6.954
3.200	6.954
3.210	6.957
3.220	6.962
3.230	6.968
3.240	6.974
3.250	6.981
3.260	6.987
3.270	6.992
3.280	6.995
3.290	6.995
3.300	6.993
3.310	6.989
3.320	6.983
3.330	6.975
3.340	6.966
3.350	6.957
3.360	6.948
3.370	6.941
3.380	6.935
3.390	6.932
3.400	6.931
3.410	6.933
3.420	6.937
3.430	6.942
3.440	6.949
3.450	6.956
3.460	6.964
3.470	6.971
3.480	6.976
3.490	6.980
3.500	6.982
3.510	6.981
3.520	6.979
3.530	6.974
3.540	6.968
3.550	6.960
3.560	6.952
3.570	6.943
3.580	6.934
3.590	6.925
3.600	6.917
3.610	6.911
3.620	6.907
3.630	6.905
3.640	6.905
3.650	6.908
3.660	6.913
3.670	6.921
3.680	6.930
3.690	6.942
3.700	6.955
3.710	6.969
3.720	6.983
3.730	6.997
3.740	7.009
3.750	7.020
3.760	7.029
3.770	7.035
3.780	7.039
3.790	7.040
3.800	7.039
3.810	7.035
3.820	7.029
3.830	7.022
3.840	7.013
3.850	7.004
3.860	6.995
3.870	6.986
3.880	6.978
3.890	6.970
3.900	6.962
3.910	6.955
3.920	6.949
3.930	6.943
3.940	6.937
3.950	6.932
3.960	6.928
3.970	6.924
3.980	6.921
3.990	6.919
4.000	6.918
4.010	6.919
4.020	6.920
4.030	6.923
4.040	6.927
4.050	6.932
4.060	6.938
4.070	6.943
4.080	6.947
4.090	6.951
4.100	6.953
4.110	6.953
4.120	6.950
4.130	6.946
4.140	6.939
4.150	6.931
4.160	6.920
4.170	6.909
4.180	6.898
4.190	6.887
4.200	6.876
4.210	6.867
4.220	6.859
4.230	6.853
4.240	6.848
4.250	6.845
4.260	6.844
4.270	6.844
4.280	6.844
4.290	6.846
4.300	6.848
4.310	6.850
4.320	6.852
4.330	6.854
4.340	6.856
4.350	6.858
4.360	6.860
4.370	6.861
4.380	6.861
4.390	6.860
4.400	6.858
4.410	6.854
4.420	6.849
4.430	6.841
4.440	6.831
4.450	6.818
4.460	6.804
4.470	6.789
4.480	6.773
4.490	6.756
4.500	6.741
4.510	6.727
4.520	6.716
4.530	6.709
4.540	6.705
4.550	6.706
4.560	6.711
4.570	6.720
4.580	6.733
4.590	6.748
4.600	6.765
4.610	6.783
4.620	6.799
4.630	6.815
4.640	6.827
4.650	6.837
4.660	6.842
4.670	6.844
4.680	6.842
4.690	6.836
4.700	6.828
4.710	6.818
4.720	6.807
4.730	6.796
4.740	6.785
4.750	6.775
4.760	6.768
4.770	6.763
4.780	6.760
4.790	6.761
4.800	6.764
4.810	6.769
4.820	6.776
4.830	6.785
4.840	6.794
4.850	6.803
4.860	6.812
4.870	6.819
4.880	6.825
4.890	6.829
4.900	6.831
4.910	6.830
4.920	6.827
4.930	6.822
4.940	6.815
4.950	6.807
4.960	6.798
4.970	6.790
4.980	6.783
4.990	6.777
5.000	6.773
5.010	6.772
5.020	6.774
5.030	6.779
5.040	6.786
5.050	6.796
5.060	6.807
5.070	6.819
5.080	6.832
5.090	6.843
5.100	6.854
5.110	6.862
5.120	6.868
5.130	6.871
5.140	6.872
5.150	6.871
5.160	6.868
5.170	6.864
5.180	6.860
5.190	6.856
5.200	6.853
5.210	6.851
5.220	6.850
5.230	6.850
5.240	6.851
5.250	6.852
5.260	6.854
5.270	6.854
5.280	6.854
5.290	6.852
5.300	6.848
5.310	6.843
5.320	6.836
5.330	6.829
5.340	6.821
5.350	6.814
5.360	6.807
5.370	6.802
5.380	6.800
5.390	6.800
5.400	6.802
5.410	6.807
5.420	6.814
5.430	6.821
5.440	6.830
5.450	6.837
5.460	6.844
5.470	6.849
5.480	6.853
5.490	6.854
5.500	6.852
5.510	6.849
5.520	6.845
5.530	6.841
5.540	6.836
5.550	6.833
5.560	6.830
5.570	6.830
5.580	6.832
5.590	6.836
5.600	6.842
5.610	6.850
5.620	6.858
5.630	6.866
5.640	6.874
5.650	6.881
5.660	6.887
5.670	6.891
5.680	6.892
5.690	6.892
5.700	6.890
5.710	6.887
5.720	6.883
5.730	6.878
5.740	6.874
5.750	6.871
5.760	6.869
5.770	6.868
5.780	6.869
5.790	6.872
5.800	6.876
5.810	6.883
5.820	6.891
5.830	6.900
5.840	6.910
5.850	6.921
5.860	6.933
5.870	6.944
5.880	6.955
5.890	6.965
5.900	6.974
5.910	6.981
5.920	6.986
5.930	6.989
5.940	6.990
5.950	6.989
5.960	6.985
5.970	6.980
5.980	6.973
5.990	6.966
6.000	6.959
6.010	6.953
6.020	6.949
6.030	6.947
6.040	6.946
6.050	6.949
6.060	6.953
6.070	6.959
6.080	6.967
6.090	6.974
6.100	6.981
6.110	6.987
6.120	6.990
6.130	6.990
6.140	6.988
6.150	6.982
6.160	6.974
6.170	6.963
6.180	6.952
6.190	6.941
6.200	6.931
6.210	6.923
6.220	6.919
6.230	6.917
6.240	6.920
6.250	6.925
6.260	6.933
6.270	6.942
6.280	6.952
6.290	6.960
6.300	6.965
6.310	6.967
6.320	6.964
6.330	6.955
6.340	6.942
6.350	6.924
6.360	6.902
6.370	6.878
6.380	6.853
6.390	6.828
6.400	6.805
6.410	6.786
6.420	6.771
6.430	6.761
6.440	6.755
6.450	6.754
6.460	6.757
6.470	6.762
6.480	6.768
6.490	6.774
6.500	6.778
6.510	6.780
6.520	6.779
6.530	6.774
6.540	6.765
6.550	6.753
6.560	6.738
6.570	6.722
6.580	6.705
6.590	6.688
6.600	6.673
6.610	6.661
6.620	6.651
6.630	6.645
6.640	6.642
6.650	6.642
6.660	6.644
6.670	6.648
6.680	6.654
6.690	6.659
6.700	6.665
6.710	6.669
6.720	6.673
6.730	6.675
6.740	6.675
6.750	6.675
6.760	6.673
6.770	6.671
6.780	6.668
6.790	6.665
6.800	6.662
6.810	6.660
6.820	6.658
6.830	6.656
6.840	6.656
6.850	6.655
6.860	6.656
6.870	6.656
6.880	6.657
6.890	6.659
6.900	6.661
6.910	6.663
6.920	6.665
6.930	6.667
6.940	6.670
6.950	6.672
6.960	6.674
6.970	6.676
6.980	6.677
6.990	6.678
7.000	6.676
7.010	6.674
7.020	6.670
7.030	6.664
7.040	6.657
7.050	6.648
7.060	6.638
7.070	6.628
7.080	6.618
7.090	6.608
7.100	6.599
7.110	6.592
7.120	6.587
7.130	6.585
7.140	6.586
7.150	6.590
7.160	6.596
7.170	6.604
7.180	6.614
7.190	6.625
7.200	6.636
7.210	6.646
7.220	6.655
7.230	6.661
7.240	6.664
7.250	6.664
7.260	6.661
7.270	6.655
7.280	6.646
7.290	6.636
7.300	6.625
7.310	6.613
7.320	6.602
7.330	6.593
7.340	6.587
7.350	6.583
7.360	6.582
7.370	6.584
7.380	6.588
7.390	6.594
7.400	6.601
7.410	6.608
7.420	6.614
7.430	6.619
7.440	6.621
7.450	6.621
7.460	6.618
7.470	6.613
7.480	6.606
7.490	6.598
7.500	6.591
7.510	6.585
7.520	6.581
7.530	6.580
7.540	6.582
7.550	6.588
7.560	6.597
7.570	6.609
7.580	6.622
7.590	6.636
7.600	6.648
7.610	6.659
7.620	6.666
7.630	6.669
7.640	6.669
7.650	6.664
7.660	6.656
7.670	6.645
7.680	6.633
7.690	6.621
7.700	6.611
7.710	6.603
7.720	6.600
7.730	6.601
7.740	6.607
7.750	6.617
7.760	6.631
7.770	6.648
7.780	6.667
7.790	6.685
7.800	6.701
7.810	6.714
7.820	6.723
7.830	6.728
7.840	6.728
7.850	6.724
7.860	6.715
7.870	6.704
7.880	6.691
7.890	6.677
7.900	6.664
7.910	6.652
7.920	6.642
7.930	6.634
7.940	6.628
7.950	6.624
7.960	6.621
7.970	6.619
7.980	6.618
7.990	6.616
8.000	6.614
8.010	6.612
8.020	6.610
8.030	6.608
8.040	6.608
8.050	6.609
8.060	6.612
8.070	6.619
8.080	6.628
8.090	6.641
8.100	6.656
8.110	6.672
8.120	6.690
8.130	6.707
8.140	6.722
8.150	6.734
8.160	6.742
8.170	6.746
8.180	6.744
8.190	6.738
8.200	6.728
8.210	6.715
8.220	6.700
8.230	6.683
8.240	6.667
8.250	6.653
8.260	6.642
8.270	6.633
8.280	6.627
8.290	6.625
8.300	6.625
8.310	6.627
8.320	6.629
8.330	6.632
8.340	6.633
8.350	6.633
8.360	6.631
8.370	6.627
8.380	6.621
8.390	6.614
8.400	6.606
8.410	6.598
8.420	6.590
8.430	6.584
8.440	6.579
8.450	6.577
8.460	6.576
8.470	6.578
8.480	6.581
8.490	6.586
8.500	6.591
8.510	6.597
8.520	6.602
8.530	6.607
8.540	6.611
8.550	6.615
8.560	6.619
8.570	6.622
8.580	6.625
8.590	6.629
8.600	6.633
8.610	6.638
8.620	6.644
8.630	6.650
8.640	6.656
8.650	6.661
8.660	6.666
8.670	6.669
8.680	6.672
8.690	6.672
8.700	6.672
8.710	6.670
8.720	6.667
8.730	6.663
8.740	6.659
8.750	6.656
8.760	6.654
8.770	6.652
8.780	6.652
8.790	6.653
8.800	6.655
8.810	6.657
8.820	6.660
8.830	6.663
8.840	6.666
8.850	6.669
8.860	6.671
8.870	6.672
8.880	6.673
8.890	6.675
8.900	6.676
8.910	6.678
8.920	6.681
8.930	6.684
8.940	6.689
8.950	6.693
8.960	6.698
8.970	6.702
8.980	6.706
8.990	6.707
9.000	6.707
9.010	6.703
9.020	6.698
9.030	6.689
9.040	6.678
9.050	6.665
9.060	6.651
9.070	6.636
9.080	6.621
9.090	6.607
9.100	6.594
9.110	6.583
9.120	6.573
9.130	6.566
9.140	6.559
9.150	6.554
9.160	6.549
9.170	6.544
9.180	6.539
9.190	6.533
9.200	6.527
9.210	6.521
9.220	6.514
9.230	6.508
9.240	6.502
9.250	6.499
9.260	6.497
9.270	6.497
9.280	6.500
9.290	6.505
9.300	6.512
9.310	6.520
9.320	6.528
9.330	6.536
9.340	6.543
9.350	6.548
9.360	6.552
9.370	6.552
9.380	6.551
9.390	6.548
9.400	6.543
9.410	6.539
9.420	6.534
9.430	6.531
9.440	6.529
9.450	6.530
9.460	6.534
9.470	6.540
9.480	6.548
9.490	6.557
9.500	6.567
9.510	6.577
9.520	6.587
9.530	6.595
9.540	6.601
9.550	6.606
9.560	6.609
9.570	6.610
9.580	6.611
9.590	6.611
9.600	6.611
9.610	6.613
9.620	6.616
9.630	6.620
9.640	6.626
9.650	6.633
9.660	6.640
9.670	6.648
9.680	6.655
9.690	6.660
9.700	6.664
9.710	6.665
9.720	6.664
9.730	6.660
9.740	6.655
9.750	6.648
9.760	6.641
9.770	6.635
9.780	6.631
9.790	6.629
9.800	6.629
9.810	6.633
9.820	6.641
9.830	6.651
9.840	6.664
9.850	6.678
9.860	6.693
9.870	6.707
9.880	6.720
9.890	6.730
9.900	6.737
9.910	6.741
9.920	6.741
9.930	6.737
9.940	6.730
9.950	6.721
9.960	6.709
9.970	6.697
9.980	6.685
9.990	6.673
10.000	6.663
10.010	6.654
10.020	6.648
10.030	6.644
10.040	6.643
10.050	6.645
10.060	6.648
10.070	6.653
10.080	6.660
10.090	6.667
10.100	6.674
10.110	6.681
10.120	6.686
10.130	6.690
10.140	6.691
10.150	6.690
10.160	6.687
10.170	6.681
10.180	6.673
10.190	6.663
10.200	6.652
10.210	6.640
10.220	6.628
10.230	6.617
10.240	6.607
10.250	6.600
10.260	6.594
10.270	6.590
10.280	6.588
10.290	6.588
10.300	6.589
10.310	6.590
10.320	6.591
10.330	6.591
10.340	6.589
10.350	6.585
10.360	6.579
10.370	6.571
10.380	6.562
10.390	6.552
10.400	6.541
10.410	6.532
10.420	6.525
10.430	6.520
10.440	6.518
10.450	6.519
10.460	6.524
10.470	6.531
10.480	6.540
10.490	6.550
10.500	6.561
10.510	6.571
10.520	6.579
10.530	6.585
10.540	6.589
10.550	6.590
10.560	6.589
10.570	6.586
10.580	6.582
10.590	6.579
10.600	6.577
10.610	6.577
10.620	6.580
10.630	6.585
10.640	6.593
10.650	6.604
10.660	6.616
10.670	6.629
10.680	6.641
10.690	6.651
10.700	6.660
10.710	6.665
10.720	6.667
10.730	6.665
10.740	6.660
10.750	6.653
10.760	6.644
10.770	6.635
10.780	6.625
10.790	6.617
10.800	6.611
10.810	6.606
10.820	6.603
10.830	6.601
10.840	6.601
10.850	6.600
10.860	6.599
10.870	6.597
10.880	6.593
10.890	6.588
10.900	6.581
10.910	6.573
10.920	6.566
10.930	6.559
10.940	6.554
10.950	6.551
10.960	6.553
10.970	6.558
10.980	6.567
10.990	6.579
11.000	6.594
11.010	6.609
11.020	6.624
11.030	6.637
11.040	6.646
11.050	6.651
11.060	6.650
11.070	6.643
11.080	6.631
11.090	6.614
11.100	6.593
11.110	6.571
11.120	6.549
11.130	6.529
11.140	6.512
11.150	6.500
11.160	6.494
11.170	6.493
11.180	6.498
11.190	6.508
11.200	6.522
11.210	6.537
11.220	6.554
11.230	6.568
11.240	6.581
11.250	6.590
11.260	6.595
11.270	6.595
11.280	6.592
11.290	6.585
11.300	6.576
11.310	6.566
11.320	6.555
11.330	6.545
11.340	6.537
11.350	6.530
11.360	6.526
11.370	6.524
11.380	6.525
11.390	6.526
11.400	6.529
11.410	6.532
11.420	6.536
11.430	6.540
11.440	6.543
11.450	6.547
11.460	6.551
11.470	6.556
11.480	6.562
11.490	6.570
11.500	6.579
11.510	6.590
11.520	6.603
11.530	6.617
11.540	6.631
11.550	6.646
11.560	6.660
11.570	6.672
11.580	6.682
11.590	6.690
11.600	6.695
11.610	6.697
11.620	6.696
11.630	6.692
11.640	6.686
11.650	6.679
11.660	6.671
11.670	6.663
11.680	6.655
11.690	6.648
11.700	6.642
11.710	6.638
11.720	6.636
11.730	6.635
11.740	6.637
11.750	6.639
11.760	6.644
11.770	6.650
11.780	6.657
11.790	6.664
11.800	6.672
11.810	6.680
11.820	6.688
11.830	6.694
11.840	6.699
11.850	6.703
11.860	6.704
11.870	6.702
11.880	6.698
11.890	6.691
11.900	6.682
11.910	6.670
11.920	6.657
11.930	6.643
11.940	6.629
11.950	6.616
11.960	6.604
11.970	6.595
11.980	6.589
11.990	6.585
12.000	6.585
12.010	6.586
12.020	6.590
12.030	6.594
12.040	6.598
12.050	6.601
12.060	6.602
12.070	6.600
12.080	6.596
12.090	6.589
12.100	6.580
12.110	6.568
12.120	6.556
12.130	6.544
12.140	6.533
12.150	6.524
12.160	6.518
12.170	6.515
12.180	6.515
12.190	6.518
12.200	6.523
12.210	6.530
12.220	6.537
12.230	6.543
12.240	6.548
12.250	6.550
12.260	6.549
12.270	6.544
12.280	6.536
12.290	6.525
12.300	6.512
12.310	6.497
12.320	6.483
12.330	6.470
12.340	6.458
12.350	6.450
12.360	6.444
12.370	6.443
12.380	6.445
12.390	6.450
12.400	6.459
12.410	6.469
12.420	6.481
12.430	6.494
12.440	6.506
12.450	6.517
12.460	6.526
12.470	6.533
12.480	6.538
12.490	6.540
12.500	6.539
12.510	6.535
12.520	6.529
12.530	6.520
12.540	6.509
12.550	6.496
12.560	6.482
12.570	6.467
12.580	6.453
12.590	6.439
12.600	6.426
12.610	6.416
12.620	6.408
12.630	6.405
12.640	6.405
12.650	6.410
12.660	6.419
12.670	6.431
12.680	6.447
12.690	6.465
12.700	6.484
12.710	6.503
12.720	6.521
12.730	6.537
12.740	6.550
12.750	6.560
12.760	6.566
12.770	6.568
12.780	6.567
12.790	6.564
12.800	6.560
12.810	6.555
12.820	6.551
12.830	6.548
12.840	6.547
12.850	6.548
12.860	6.551
12.870	6.556
12.880	6.563
12.890	6.570
12.900	6.577
12.910	6.583
12.920	6.587
12.930	6.590
12.940	6.591
12.950	6.590
12.960	6.587
12.970	6.584
12.980	6.580
12.990	6.575
13.000	6.571
13.010	6.568
13.020	6.566
13.030	6.565
13.040	6.564
13.050	6.562
13.060	6.561
13.070	6.558
13.080	6.554
13.090	6.549
13.100	6.542
13.110	6.534
13.120	6.526
13.130	6.518
13.140	6.512
13.150	6.508
13.160	6.507
13.170	6.510
13.180	6.516
13.190	6.526
13.200	6.539
13.210	6.553
13.220	6.568
13.230	6.582
13.240	6.593
13.250	6.601
13.260	6.605
13.270	6.604
13.280	6.598
13.290	6.587
13.300	6.573
13.310	6.557
13.320	6.540
13.330	6.524
13.340	6.510
13.350	6.499
13.360	6.492
13.370	6.489
13.380	6.490
13.390	6.494
13.400	6.499
13.410	6.505
13.420	6.509
13.430	6.510
13.440	6.507
13.450	6.501
13.460	6.489
13.470	6.474
13.480	6.455
13.490	6.434
13.500	6.414
13.510	6.394
13.520	6.378
13.530	6.366
13.540	6.360
13.550	6.359
13.560	6.363
13.570	6.372
13.580	6.385
13.590	6.400
13.600	6.416
13.610	6.432
13.620	6.447
13.630	6.458
13.640	6.467
13.650	6.473
13.660	6.477
13.670	6.478
13.680	6.479
13.690	6.480
13.700	6.482
13.710	6.486
13.720	6.492
13.730	6.501
13.740	6.513
13.750	6.525
13.760	6.539
13.770	6.553
13.780	6.566
13.790	6.577
13.800	6.586
13.810	6.592
13.820	6.595
13.830	6.596
13.840	6.594
13.850	6.592
13.860	6.589
13.870	6.587
13.880	6.586
13.890	6.587
13.900	6.589
13.910	6.594
13.920	6.600
13.930	6.607
13.940	6.614
13.950	6.621
13.960	6.626
13.970	6.629
13.980	6.631
13.990	6.629
14.000	6.626
14.010	6.620
14.020	6.613
14.030	6.605
14.040	6.597
14.050	6.588
14.060	6.580
14.070	6.573
14.080	6.567
14.090	6.561
14.100	6.555
14.110	6.549
14.120	6.543
14.130	6.535
14.140	6.525
14.150	6.514
14.160	6.501
14.170	6.487
14.180	6.473
14.190	6.458
14.200	6.444
14.210	6.431
14.220	6.420
14.230	6.411
14.240	6.405
14.250	6.401
14.260	6.400
14.270	6.401
14.280	6.404
14.290	6.408
14.300	6.413
14.310	6.417
14.320	6.422
14.330	6.426
14.340	6.429
14.350	6.431
14.360	6.433
14.370	6.434
14.380	6.435
14.390	6.436
14.400	6.437
14.410	6.438
14.420	6.440
14.430	6.441
14.440	6.442
14.450	6.443
14.460	6.443
14.470	6.442
14.480	6.440
14.490	6.437
14.500	6.433
14.510	6.427
14.520	6.422
14.530	6.415
14.540	6.409
14.550	6.403
14.560	6.398
14.570	6.393
14.580	6.388
14.590	6.385
14.600	6.382
14.610	6.380
14.620	6.378
14.630	6.376
14.640	6.374
14.650	6.372
14.660	6.370
14.670	6.367
14.680	6.364
14.690	6.361
14.700	6.358
14.710	6.354
14.720	6.351
14.730	6.347
14.740	6.344
14.750	6.340
14.760	6.337
14.770	6.334
14.780	6.331
14.790	6.329
14.800	6.327
14.810	6.326
14.820	6.326
14.830	6.328
14.840	6.332
14.850	6.338
14.860	6.346
14.870	6.356
14.880	6.368
14.890	6.382
14.900	6.397
14.910	6.411
14.920	6.426
14.930	6.438
14.940	6.448
14.950	6.455
14.960	6.458
14.970	6.458
14.980	6.454
14.990	6.446
15.000	6.436
15.010	6.424
15.020	6.411
15.030	6.399
15.040	6.389
15.050	6.381
15.060	6.376
15.070	6.375
15.080	6.377
15.090	6.383
15.100	6.392
15.110	6.403
15.120	6.415
15.130	6.429
15.140	6.441
15.150	6.453
15.160	6.463
15.170	6.471
15.180	6.477
15.190	6.481
15.200	6.484
15.210	6.485
15.220	6.485
15.230	6.484
15.240	6.484
15.250	6.484
15.260	6.484
15.270	6.485
15.280	6.486
15.290	6.487
15.300	6.489
15.310	6.490
15.320	6.491
15.330	6.492
15.340	6.492
15.350	6.492
15.360	6.491
15.370	6.491
15.380	6.491
15.390	6.491
15.400	6.491
15.410	6.492
15.420	6.493
15.430	6.493
15.440	6.493
15.450	6.492
15.460	6.490
15.470	6.486
15.480	6.482
15.490	6.476
15.500	6.469
15.510	6.461
15.520	6.454
15.530	6.447
15.540	6.441
15.550	6.437
15.560	6.435
15.570	6.436
15.580	6.438
15.590	6.444
15.600	6.450
15.610	6.458
15.620	6.467
15.630	6.475
15.640	6.481
15.650	6.486
15.660	6.488
15.670	6.488
15.680	6.486
15.690	6.481
15.700	6.476
15.710	6.469
15.720	6.463
15.730	6.457
15.740	6.454
15.750	6.453
15.760	6.455
15.770	6.460
15.780	6.468
15.790	6.479
15.800	6.492
15.810	6.505
15.820	6.520
15.830	6.534
15.840	6.547
15.850	6.558
15.860	6.568
15.870	6.575
15.880	6.579
15.890	6.582
15.900	6.583
15.910	6.583
15.920	6.581
15.930	6.580
15.940	6.577
15.950	6.575
15.960	6.573
15.970	6.571
15.980	6.570
15.990	6.568
16.000	6.566
16.010	6.564
16.020	6.562
16.030	6.561
16.040	6.559
16.050	6.558
16.060	6.557
16.070	6.557
16.080	6.558
16.090	6.561
16.100	6.564
16.110	6.569
16.120	6.575
16.130	6.581
