Time(s)	V(m/s)
0.000	17.485
0.010	17.498
0.020	17.511
0.030	17.524
0.040	17.537
0.050	17.550
0.060	17.563
0.070	17.577
0.080	17.592
0.090	17.610
0.100	17.629
0.110	17.652
0.120	17.677
0.130	17.704
0.140	17.731
0.150	17.756
0.160	17.778
0.170	17.795
0.180	17.806
0.190	17.808
0.200	17.801
0.210	17.785
0.220	17.763
0.230	17.734
0.240	17.702
0.250	17.671
0.260	17.643
0.270	17.621
0.280	17.608
0.290	17.607
0.300	17.618
0.310	17.642
0.320	17.678
0.330	17.725
0.340	17.779
0.350	17.840
0.360	17.903
0.370	17.965
0.380	18.025
0.390	18.079
0.400	18.127
0.410	18.168
0.420	18.200
0.430	18.223
0.440	18.239
0.450	18.246
0.460	18.245
0.470	18.236
0.480	18.219
0.490	18.194
0.500	18.160
0.510	18.117
0.520	18.066
0.530	18.007
0.540	17.942
0.550	17.873
0.560	17.803
0.570	17.734
0.580	17.671
0.590	17.616
0.600	17.572
0.610	17.543
0.620	17.529
0.630	17.530
0.640	17.547
0.650	17.576
0.660	17.615
0.670	17.661
0.680	17.708
0.690	17.753
0.700	17.793
0.710	17.824
0.720	17.844
0.730	17.854
0.740	17.853
0.750	17.843
0.760	17.826
0.770	17.806
0.780	17.786
0.790	17.767
0.800	17.753
0.810	17.745
0.820	17.742
0.830	17.744
0.840	17.749
0.850	17.756
0.860	17.761
0.870	17.762
0.880	17.756
0.890	17.744
0.900	17.723
0.910	17.695
0.920	17.661
0.930	17.623
0.940	17.584
0.950	17.548
0.960	17.516
0.970	17.492
0.980	17.476
0.990	17.469
1.000	17.471
1.010	17.481
1.020	17.495
1.030	17.513
1.040	17.531
1.050	17.547
1.060	17.559
1.070	17.567
1.080	17.571
1.090	17.572
1.100	17.572
1.110	17.572
1.120	17.576
1.130	17.586
1.140	17.603
1.150	17.629
1.160	17.663
1.170	17.704
1.180	17.749
1.190	17.797
1.200	17.842
1.210	17.882
1.220	17.912
1.230	17.930
1.240	17.933
1.250	17.922
1.260	17.897
1.270	17.859
1.280	17.811
1.290	17.758
1.300	17.702
1.310	17.647
1.320	17.597
1.330	17.554
1.340	17.520
1.350	17.495
1.360	17.477
1.370	17.466
1.380	17.459
1.390	17.453
1.400	17.446
1.410	17.434
1.420	17.417
1.430	17.393
1.440	17.363
1.450	17.326
1.460	17.285
1.470	17.242
1.480	17.199
1.490	17.159
1.500	17.123
1.510	17.093
1.520	17.069
1.530	17.052
1.540	17.040
1.550	17.032
1.560	17.027
1.570	17.023
1.580	17.019
1.590	17.013
1.600	17.003
1.610	16.992
1.620	16.977
1.630	16.961
1.640	16.945
1.650	16.930
1.660	16.917
1.670	16.909
1.680	16.905
1.690	16.906
1.700	16.913
1.710	16.924
1.720	16.938
1.730	16.955
1.740	16.973
1.750	16.991
1.760	17.008
1.770	17.023
1.780	17.036
1.790	17.047
1.800	17.055
1.810	17.063
1.820	17.069
1.830	17.075
1.840	17.081
1.850	17.087
1.860	17.093
1.870	17.097
1.880	17.101
1.890	17.102
1.900	17.100
1.910	17.095
1.920	17.086
1.930	17.072
1.940	17.055
1.950	17.036
1.960	17.014
1.970	16.992
1.980	16.970
1.990	16.950
2.000	16.932
2.010	16.918
2.020	16.907
2.030	16.898
2.040	16.893
2.050	16.888
2.060	16.883
2.070	16.877
2.080	16.868
2.090	16.856
2.100	16.841
2.110	16.822
2.120	16.800
2.130	16.775
2.140	16.749
2.150	16.723
2.160	16.698
2.170	16.675
2.180	16.656
2.190	16.640
2.200	16.629
2.210	16.622
2.220	16.618
2.230	16.617
2.240	16.618
2.250	16.620
2.260	16.623
2.270	16.625
2.280	16.627
2.290	16.628
2.300	16.628
2.310	16.627
2.320	16.626
2.330	16.623
2.340	16.619
2.350	16.615
2.360	16.609
2.370	16.602
2.380	16.593
2.390	16.582
2.400	16.570
2.410	16.556
2.420	16.542
2.430	16.529
2.440	16.518
2.450	16.511
2.460	16.509
2.470	16.515
2.480	16.530
2.490	16.554
2.500	16.588
2.510	16.631
2.520	16.681
2.530	16.737
2.540	16.795
2.550	16.853
2.560	16.908
2.570	16.956
2.580	16.994
2.590	17.021
2.600	17.035
2.610	17.037
2.620	17.028
2.630	17.008
2.640	16.982
2.650	16.951
2.660	16.918
2.670	16.888
2.680	16.862
2.690	16.843
2.700	16.831
2.710	16.827
2.720	16.830
2.730	16.839
2.740	16.851
2.750	16.866
2.760	16.881
2.770	16.893
2.780	16.901
2.790	16.905
2.800	16.904
2.810	16.898
2.820	16.888
2.830	16.877
2.840	16.865
2.850	16.854
2.860	16.845
2.870	16.841
2.880	16.842
2.890	16.848
2.900	16.859
2.910	16.875
2.920	16.895
2.930	16.918
2.940	16.943
2.950	16.969
2.960	16.995
2.970	17.021
2.980	17.046
2.990	17.071
3.000	17.094
3.010	17.116
3.020	17.137
3.030	17.155
3.040	17.172
3.050	17.185
3.060	17.195
3.070	17.200
3.080	17.200
3.090	17.194
3.100	17.183
3.110	17.167
3.120	17.147
3.130	17.123
3.140	17.098
3.150	17.073
3.160	17.050
3.170	17.032
3.180	17.020
3.190	17.014
3.200	17.016
3.210	17.025
3.220	17.040
3.230	17.059
3.240	17.081
3.250	17.103
3.260	17.124
3.270	17.139
3.280	17.149
3.290	17.151
3.300	17.145
3.310	17.131
3.320	17.110
3.330	17.084
3.340	17.056
3.350	17.026
3.360	16.998
3.370	16.975
3.380	16.957
3.390	16.947
3.400	16.944
3.410	16.949
3.420	16.962
3.430	16.980
3.440	17.003
3.450	17.027
3.460	17.051
3.470	17.074
3.480	17.092
3.490	17.104
3.500	17.111
3.510	17.110
3.520	17.102
3.530	17.088
3.540	17.067
3.550	17.043
3.560	17.015
3.570	16.985
3.580	16.955
3.590	16.928
3.600	16.903
3.610	16.883
3.620	16.869
3.630	16.862
3.640	16.863
3.650	16.872
3.660	16.890
3.670	16.915
3.680	16.947
3.690	16.986
3.700	17.028
3.710	17.074
3.720	17.120
3.730	17.164
3.740	17.205
3.750	17.241
3.760	17.270
3.770	17.291
3.780	17.303
3.790	17.307
3.800	17.302
3.810	17.290
3.820	17.272
3.830	17.248
3.840	17.221
3.850	17.192
3.860	17.163
3.870	17.134
3.880	17.106
3.890	17.080
3.900	17.056
3.910	17.033
3.920	17.013
3.930	16.994
3.940	16.976
3.950	16.960
3.960	16.946
3.970	16.934
3.980	16.924
3.990	16.918
4.000	16.915
4.010	16.917
4.020	16.923
4.030	16.933
4.040	16.946
4.050	16.962
4.060	16.980
4.070	16.997
4.080	17.012
4.090	17.024
4.100	17.030
4.110	17.030
4.120	17.023
4.130	17.009
4.140	16.987
4.150	16.959
4.160	16.927
4.170	16.891
4.180	16.854
4.190	16.818
4.200	16.784
4.210	16.753
4.220	16.728
4.230	16.708
4.240	16.693
4.250	16.684
4.260	16.680
4.270	16.679
4.280	16.682
4.290	16.687
4.300	16.693
4.310	16.700
4.320	16.708
4.330	16.716
4.340	16.723
4.350	16.729
4.360	16.734
4.370	16.738
4.380	16.739
4.390	16.737
4.400	16.730
4.410	16.718
4.420	16.700
4.430	16.674
4.440	16.642
4.450	16.602
4.460	16.557
4.470	16.507
4.480	16.454
4.490	16.401
4.500	16.351
4.510	16.307
4.520	16.272
4.530	16.247
4.540	16.236
4.550	16.239
4.560	16.256
4.570	16.286
4.580	16.327
4.590	16.377
4.600	16.432
4.610	16.489
4.620	16.544
4.630	16.594
4.640	16.636
4.650	16.666
4.660	16.685
4.670	16.691
4.680	16.684
4.690	16.667
4.700	16.641
4.710	16.608
4.720	16.571
4.730	16.534
4.740	16.499
4.750	16.468
4.760	16.444
4.770	16.428
4.780	16.421
4.790	16.422
4.800	16.432
4.810	16.449
4.820	16.473
4.830	16.501
4.840	16.531
4.850	16.561
4.860	16.590
4.870	16.615
4.880	16.635
4.890	16.648
4.900	16.653
4.910	16.651
4.920	16.641
4.930	16.624
4.940	16.602
4.950	16.575
4.960	16.548
4.970	16.521
4.980	16.497
4.990	16.478
5.000	16.467
5.010	16.464
5.020	16.470
5.030	16.486
5.040	16.510
5.050	16.542
5.060	16.579
5.070	16.619
5.080	16.659
5.090	16.697
5.100	16.730
5.110	16.757
5.120	16.777
5.130	16.788
5.140	16.791
5.150	16.788
5.160	16.779
5.170	16.767
5.180	16.754
5.190	16.741
5.200	16.731
5.210	16.724
5.220	16.721
5.230	16.721
5.240	16.725
5.250	16.730
5.260	16.734
5.270	16.736
5.280	16.735
5.290	16.729
5.300	16.717
5.310	16.700
5.320	16.679
5.330	16.655
5.340	16.629
5.350	16.605
5.360	16.584
5.370	16.569
5.380	16.561
5.390	16.560
5.400	16.569
5.410	16.584
5.420	16.606
5.430	16.631
5.440	16.658
5.450	16.684
5.460	16.707
5.470	16.724
5.480	16.734
5.490	16.738
5.500	16.734
5.510	16.725
5.520	16.711
5.530	16.696
5.540	16.682
5.550	16.670
5.560	16.663
5.570	16.663
5.580	16.669
5.590	16.683
5.600	16.702
5.610	16.727
5.620	16.754
5.630	16.782
5.640	16.808
5.650	16.832
5.660	16.850
5.670	16.862
5.680	16.868
5.690	16.867
5.700	16.861
5.710	16.850
5.720	16.837
5.730	16.823
5.740	16.810
5.750	16.799
5.760	16.792
5.770	16.790
5.780	16.793
5.790	16.802
5.800	16.817
5.810	16.838
5.820	16.864
5.830	16.895
5.840	16.928
5.850	16.965
5.860	17.002
5.870	17.040
5.880	17.076
5.890	17.109
5.900	17.138
5.910	17.162
5.920	17.179
5.930	17.189
5.940	17.191
5.950	17.186
5.960	17.175
5.970	17.158
5.980	17.137
5.990	17.114
6.000	17.092
6.010	17.073
6.020	17.059
6.030	17.051
6.040	17.051
6.050	17.058
6.060	17.073
6.070	17.094
6.080	17.118
6.090	17.143
6.100	17.166
6.110	17.184
6.120	17.194
6.130	17.196
6.140	17.187
6.150	17.169
6.160	17.142
6.170	17.109
6.180	17.073
6.190	17.037
6.200	17.005
6.210	16.981
6.220	16.966
6.230	16.962
6.240	16.969
6.250	16.987
6.260	17.013
6.270	17.044
6.280	17.075
6.290	17.101
6.300	17.120
6.310	17.125
6.320	17.115
6.330	17.089
6.340	17.046
6.350	16.987
6.360	16.917
6.370	16.838
6.380	16.756
6.390	16.676
6.400	16.602
6.410	16.539
6.420	16.490
6.430	16.457
6.440	16.440
6.450	16.437
6.460	16.445
6.470	16.462
6.480	16.483
6.490	16.503
6.500	16.518
6.510	16.524
6.520	16.520
6.530	16.504
6.540	16.476
6.550	16.437
6.560	16.389
6.570	16.336
6.580	16.281
6.590	16.228
6.600	16.180
6.610	16.139
6.620	16.108
6.630	16.088
6.640	16.078
6.650	16.078
6.660	16.086
6.670	16.100
6.680	16.117
6.690	16.136
6.700	16.154
6.710	16.169
6.720	16.181
6.730	16.188
6.740	16.191
6.750	16.189
6.760	16.184
6.770	16.176
6.780	16.167
6.790	16.158
6.800	16.149
6.810	16.141
6.820	16.135
6.830	16.131
6.840	16.129
6.850	16.128
6.860	16.130
6.870	16.132
6.880	16.136
6.890	16.141
6.900	16.147
6.910	16.154
6.920	16.161
6.930	16.169
6.940	16.178
6.950	16.186
6.960	16.194
6.970	16.200
6.980	16.204
6.990	16.205
7.000	16.202
7.010	16.194
7.020	16.181
7.030	16.162
7.040	16.139
7.050	16.111
7.060	16.079
7.070	16.046
7.080	16.012
7.090	15.980
7.100	15.952
7.110	15.930
7.120	15.914
7.130	15.908
7.140	15.910
7.150	15.922
7.160	15.942
7.170	15.970
7.180	16.003
7.190	16.039
7.200	16.075
7.210	16.108
7.220	16.136
7.230	16.156
7.240	16.167
7.250	16.168
7.260	16.158
7.270	16.139
7.280	16.111
7.290	16.077
7.300	16.040
7.310	16.002
7.320	15.968
7.330	15.938
7.340	15.917
7.350	15.904
7.360	15.902
7.370	15.908
7.380	15.923
7.390	15.943
7.400	15.966
7.410	15.989
7.420	16.010
7.430	16.025
7.440	16.032
7.450	16.031
7.460	16.022
7.470	16.005
7.480	15.983
7.490	15.959
7.500	15.935
7.510	15.915
7.520	15.903
7.530	15.900
7.540	15.908
7.550	15.927
7.560	15.957
7.570	15.995
7.580	16.038
7.590	16.082
7.600	16.123
7.610	16.157
7.620	16.182
7.630	16.193
7.640	16.191
7.650	16.176
7.660	16.149
7.670	16.114
7.680	16.075
7.690	16.036
7.700	16.003
7.710	15.978
7.720	15.967
7.730	15.971
7.740	15.990
7.750	16.025
7.760	16.071
7.770	16.127
7.780	16.186
7.790	16.245
7.800	16.299
7.810	16.342
7.820	16.373
7.830	16.389
7.840	16.389
7.850	16.374
7.860	16.347
7.870	16.310
7.880	16.268
7.890	16.223
7.900	16.180
7.910	16.141
7.920	16.108
7.930	16.082
7.940	16.063
7.950	16.050
7.960	16.042
7.970	16.036
7.980	16.032
7.990	16.027
8.000	16.020
8.010	16.013
8.020	16.006
8.030	16.001
8.040	15.999
8.050	16.003
8.060	16.015
8.070	16.036
8.080	16.067
8.090	16.108
8.100	16.157
8.110	16.212
8.120	16.269
8.130	16.324
8.140	16.373
8.150	16.413
8.160	16.440
8.170	16.452
8.180	16.448
8.190	16.428
8.200	16.396
8.210	16.352
8.220	16.302
8.230	16.249
8.240	16.198
8.250	16.152
8.260	16.114
8.270	16.086
8.280	16.068
8.290	16.060
8.300	16.060
8.310	16.066
8.320	16.075
8.330	16.083
8.340	16.088
8.350	16.089
8.360	16.082
8.370	16.069
8.380	16.050
8.390	16.027
8.400	16.000
8.410	15.973
8.420	15.949
8.430	15.928
8.440	15.914
8.450	15.906
8.460	15.905
8.470	15.911
8.480	15.922
8.490	15.937
8.500	15.955
8.510	15.973
8.520	15.990
8.530	16.007
8.540	16.021
8.550	16.033
8.560	16.045
8.570	16.056
8.580	16.067
8.590	16.079
8.600	16.094
8.610	16.110
8.620	16.128
8.630	16.147
8.640	16.167
8.650	16.185
8.660	16.200
8.670	16.212
8.680	16.220
8.690	16.222
8.700	16.220
8.710	16.213
8.720	16.203
8.730	16.192
8.740	16.180
8.750	16.170
8.760	16.162
8.770	16.157
8.780	16.156
8.790	16.159
8.800	16.166
8.810	16.174
8.820	16.184
8.830	16.195
8.840	16.204
8.850	16.213
8.860	16.219
8.870	16.224
8.880	16.229
8.890	16.233
8.900	16.238
8.910	16.245
8.920	16.254
8.930	16.265
8.940	16.279
8.950	16.295
8.960	16.311
8.970	16.325
8.980	16.335
8.990	16.341
9.000	16.339
9.010	16.329
9.020	16.310
9.030	16.282
9.040	16.247
9.050	16.204
9.060	16.158
9.070	16.109
9.080	16.061
9.090	16.015
9.100	15.974
9.110	15.937
9.120	15.907
9.130	15.882
9.140	15.861
9.150	15.844
9.160	15.829
9.170	15.813
9.180	15.797
9.190	15.779
9.200	15.759
9.210	15.737
9.220	15.715
9.230	15.695
9.240	15.678
9.250	15.666
9.260	15.660
9.270	15.662
9.280	15.671
9.290	15.687
9.300	15.710
9.310	15.736
9.320	15.763
9.330	15.790
9.340	15.813
9.350	15.830
9.360	15.841
9.370	15.843
9.380	15.839
9.390	15.828
9.400	15.814
9.410	15.799
9.420	15.784
9.430	15.774
9.440	15.769
9.450	15.772
9.460	15.784
9.470	15.803
9.480	15.829
9.490	15.860
9.500	15.893
9.510	15.926
9.520	15.957
9.530	15.984
9.540	16.005
9.550	16.020
9.560	16.029
9.570	16.034
9.580	16.035
9.590	16.036
9.600	16.038
9.610	16.043
9.620	16.052
9.630	16.066
9.640	16.085
9.650	16.108
9.660	16.133
9.670	16.158
9.680	16.180
9.690	16.198
9.700	16.210
9.710	16.213
9.720	16.209
9.730	16.198
9.740	16.180
9.750	16.159
9.760	16.137
9.770	16.117
9.780	16.103
9.790	16.096
9.800	16.099
9.810	16.112
9.820	16.136
9.830	16.170
9.840	16.211
9.850	16.258
9.860	16.306
9.870	16.352
9.880	16.394
9.890	16.427
9.900	16.451
9.910	16.462
9.920	16.462
9.930	16.451
9.940	16.429
9.950	16.398
9.960	16.362
9.970	16.322
9.980	16.281
9.990	16.243
10.000	16.209
10.010	16.182
10.020	16.162
10.030	16.150
10.040	16.147
10.050	16.151
10.060	16.163
10.070	16.180
10.080	16.202
10.090	16.225
10.100	16.249
10.110	16.271
10.120	16.288
10.130	16.300
10.140	16.305
10.150	16.303
10.160	16.292
10.170	16.273
10.180	16.246
10.190	16.214
10.200	16.178
10.210	16.139
10.220	16.101
10.230	16.065
10.240	16.034
10.250	16.008
10.260	15.989
10.270	15.977
10.280	15.971
10.290	15.971
10.300	15.974
10.310	15.978
10.320	15.981
10.330	15.980
10.340	15.974
10.350	15.962
10.360	15.942
10.370	15.917
10.380	15.887
10.390	15.854
10.400	15.821
10.410	15.791
10.420	15.767
10.430	15.751
10.440	15.745
10.450	15.749
10.460	15.764
10.470	15.787
10.480	15.818
10.490	15.852
10.500	15.887
10.510	15.919
10.520	15.946
10.530	15.966
10.540	15.978
10.550	15.981
10.560	15.977
10.570	15.968
10.580	15.957
10.590	15.947
10.600	15.940
10.610	15.940
10.620	15.949
10.630	15.966
10.640	15.993
10.650	16.028
10.660	16.067
10.670	16.108
10.680	16.148
10.690	16.183
10.700	16.211
10.710	16.228
10.720	16.233
10.730	16.228
10.740	16.212
10.750	16.189
10.760	16.160
10.770	16.129
10.780	16.099
10.790	16.073
10.800	16.052
10.810	16.037
10.820	16.027
10.830	16.022
10.840	16.021
10.850	16.019
10.860	16.016
10.870	16.009
10.880	15.997
10.890	15.979
10.900	15.957
10.910	15.932
10.920	15.907
10.930	15.884
10.940	15.868
10.950	15.861
10.960	15.866
10.970	15.883
10.980	15.912
10.990	15.952
11.000	15.999
11.010	16.050
11.020	16.099
11.030	16.141
11.040	16.172
11.050	16.187
11.060	16.184
11.070	16.162
11.080	16.121
11.090	16.066
11.100	15.999
11.110	15.927
11.120	15.855
11.130	15.789
11.140	15.734
11.150	15.696
11.160	15.675
11.170	15.674
11.180	15.691
11.190	15.724
11.200	15.768
11.210	15.819
11.220	15.871
11.230	15.920
11.240	15.961
11.250	15.990
11.260	16.006
11.270	16.008
11.280	15.997
11.290	15.975
11.300	15.946
11.310	15.912
11.320	15.878
11.330	15.845
11.340	15.818
11.350	15.797
11.360	15.784
11.370	15.778
11.380	15.779
11.390	15.784
11.400	15.793
11.410	15.805
11.420	15.817
11.430	15.829
11.440	15.841
11.450	15.853
11.460	15.867
11.470	15.883
11.480	15.903
11.490	15.928
11.500	15.958
11.510	15.994
11.520	16.035
11.530	16.080
11.540	16.127
11.550	16.175
11.560	16.220
11.570	16.261
11.580	16.294
11.590	16.320
11.600	16.336
11.610	16.342
11.620	16.338
11.630	16.327
11.640	16.308
11.650	16.284
11.660	16.258
11.670	16.231
11.680	16.205
11.690	16.183
11.700	16.164
11.710	16.151
11.720	16.144
11.730	16.142
11.740	16.146
11.750	16.156
11.760	16.171
11.770	16.190
11.780	16.212
11.790	16.237
11.800	16.263
11.810	16.289
11.820	16.314
11.830	16.336
11.840	16.353
11.850	16.364
11.860	16.368
11.870	16.363
11.880	16.349
11.890	16.327
11.900	16.296
11.910	16.258
11.920	16.215
11.930	16.169
11.940	16.124
11.950	16.081
11.960	16.044
11.970	16.015
11.980	15.995
11.990	15.984
12.000	15.982
12.010	15.987
12.020	15.998
12.030	16.012
12.040	16.025
12.050	16.035
12.060	16.038
12.070	16.033
12.080	16.020
12.090	15.997
12.100	15.967
12.110	15.930
12.120	15.891
12.130	15.852
12.140	15.816
12.150	15.787
12.160	15.767
12.170	15.757
12.180	15.758
12.190	15.767
12.200	15.785
12.210	15.806
12.220	15.830
12.230	15.850
12.240	15.865
12.250	15.872
12.260	15.868
12.270	15.853
12.280	15.827
12.290	15.791
12.300	15.749
12.310	15.702
12.320	15.655
12.330	15.612
12.340	15.575
12.350	15.547
12.360	15.530
12.370	15.525
12.380	15.532
12.390	15.550
12.400	15.577
12.410	15.612
12.420	15.651
12.430	15.691
12.440	15.730
12.450	15.766
12.460	15.797
12.470	15.820
12.480	15.836
12.490	15.842
12.500	15.839
12.510	15.827
12.520	15.806
12.530	15.778
12.540	15.742
12.550	15.701
12.560	15.655
12.570	15.607
12.580	15.559
12.590	15.513
12.600	15.473
12.610	15.439
12.620	15.416
12.630	15.404
12.640	15.405
12.650	15.420
12.660	15.449
12.670	15.490
12.680	15.541
12.690	15.599
12.700	15.662
12.710	15.724
12.720	15.783
12.730	15.835
12.740	15.878
12.750	15.909
12.760	15.929
12.770	15.937
12.780	15.935
12.790	15.925
12.800	15.911
12.810	15.896
12.820	15.882
12.830	15.873
12.840	15.869
12.850	15.873
12.860	15.883
12.870	15.900
12.880	15.920
12.890	15.943
12.900	15.966
12.910	15.986
12.920	16.001
12.930	16.010
12.940	16.013
12.950	16.010
12.960	16.002
12.970	15.990
12.980	15.976
12.990	15.962
13.000	15.950
13.010	15.940
13.020	15.933
13.030	15.928
13.040	15.924
13.050	15.921
13.060	15.916
13.070	15.907
13.080	15.894
13.090	15.876
13.100	15.854
13.110	15.829
13.120	15.802
13.130	15.777
13.140	15.757
13.150	15.744
13.160	15.742
13.170	15.750
13.180	15.771
13.190	15.803
13.200	15.844
13.210	15.891
13.220	15.940
13.230	15.985
13.240	16.023
13.250	16.050
13.260	16.062
13.270	16.058
13.280	16.038
13.290	16.003
13.300	15.957
13.310	15.904
13.320	15.849
13.330	15.796
13.340	15.751
13.350	15.716
13.360	15.694
13.370	15.685
13.380	15.688
13.390	15.700
13.400	15.718
13.410	15.736
13.420	15.749
13.430	15.753
13.440	15.745
13.450	15.723
13.460	15.686
13.470	15.635
13.480	15.574
13.490	15.508
13.500	15.440
13.510	15.378
13.520	15.325
13.530	15.286
13.540	15.265
13.550	15.261
13.560	15.275
13.570	15.305
13.580	15.347
13.590	15.397
13.600	15.450
13.610	15.502
13.620	15.548
13.630	15.587
13.640	15.616
13.650	15.635
13.660	15.647
13.670	15.652
13.680	15.654
13.690	15.657
13.700	15.664
13.710	15.677
13.720	15.698
13.730	15.727
13.740	15.763
13.750	15.805
13.760	15.851
13.770	15.896
13.780	15.938
13.790	15.974
13.800	16.003
13.810	16.022
13.820	16.033
13.830	16.035
13.840	16.031
13.850	16.023
13.860	16.014
13.870	16.006
13.880	16.003
13.890	16.005
13.900	16.014
13.910	16.029
13.920	16.048
13.930	16.071
13.940	16.095
13.950	16.116
13.960	16.134
13.970	16.145
13.980	16.149
13.990	16.145
14.000	16.134
14.010	16.116
14.020	16.093
14.030	16.066
14.040	16.039
14.050	16.012
14.060	15.986
14.070	15.964
14.080	15.943
14.090	15.924
14.100	15.905
14.110	15.886
14.120	15.864
14.130	15.838
14.140	15.807
14.150	15.771
14.160	15.730
14.170	15.685
14.180	15.637
14.190	15.589
14.200	15.543
14.210	15.501
14.220	15.465
14.230	15.436
14.240	15.416
14.250	15.404
14.260	15.401
14.270	15.405
14.280	15.414
14.290	15.427
14.300	15.442
14.310	15.457
14.320	15.472
14.330	15.484
14.340	15.494
14.350	15.502
14.360	15.508
14.370	15.512
14.380	15.515
14.390	15.519
14.400	15.522
14.410	15.526
14.420	15.531
14.430	15.536
14.440	15.539
14.450	15.542
14.460	15.542
14.470	15.539
14.480	15.532
14.490	15.522
14.500	15.508
14.510	15.492
14.520	15.473
14.530	15.453
14.540	15.432
14.550	15.412
14.560	15.394
14.570	15.378
14.580	15.365
14.590	15.354
14.600	15.345
14.610	15.338
14.620	15.331
14.630	15.326
14.640	15.320
14.650	15.313
14.660	15.305
14.670	15.297
14.680	15.287
14.690	15.276
14.700	15.265
14.710	15.254
14.720	15.242
14.730	15.231
14.740	15.219
14.750	15.208
14.760	15.197
14.770	15.187
14.780	15.178
14.790	15.170
14.800	15.164
14.810	15.161
14.820	15.162
14.830	15.168
14.840	15.180
14.850	15.199
14.860	15.225
14.870	15.259
14.880	15.299
14.890	15.344
14.900	15.391
14.910	15.440
14.920	15.486
14.930	15.526
14.940	15.559
14.950	15.582
14.960	15.592
14.970	15.591
