Time(s)	V(m/s)
0.000	19.568
0.010	19.582
0.020	19.597
0.030	19.613
0.040	19.628
0.050	19.643
0.060	19.658
0.070	19.674
0.080	19.692
0.090	19.712
0.100	19.735
0.110	19.761
0.120	19.790
0.130	19.821
0.140	19.852
0.150	19.882
0.160	19.908
0.170	19.928
0.180	19.940
0.190	19.942
0.200	19.934
0.210	19.916
0.220	19.890
0.230	19.856
0.240	19.820
0.250	19.783
0.260	19.750
0.270	19.725
0.280	19.711
0.290	19.709
0.300	19.722
0.310	19.750
0.320	19.792
0.330	19.846
0.340	19.909
0.350	19.979
0.360	20.052
0.370	20.125
0.380	20.194
0.390	20.257
0.400	20.313
0.410	20.359
0.420	20.397
0.430	20.424
0.440	20.442
0.450	20.450
0.460	20.450
0.470	20.439
0.480	20.419
0.490	20.390
0.500	20.350
0.510	20.301
0.520	20.241
0.530	20.173
0.540	20.098
0.550	20.018
0.560	19.937
0.570	19.857
0.580	19.784
0.590	19.720
0.600	19.670
0.610	19.635
0.620	19.619
0.630	19.621
0.640	19.640
0.650	19.674
0.660	19.720
0.670	19.772
0.680	19.827
0.690	19.880
0.700	19.926
0.710	19.961
0.720	19.985
0.730	19.996
0.740	19.995
0.750	19.984
0.760	19.965
0.770	19.942
0.780	19.918
0.790	19.896
0.800	19.880
0.810	19.870
0.820	19.867
0.830	19.869
0.840	19.876
0.850	19.883
0.860	19.889
0.870	19.890
0.880	19.884
0.890	19.869
0.900	19.845
0.910	19.812
0.920	19.773
0.930	19.729
0.940	19.684
0.950	19.642
0.960	19.606
0.970	19.577
0.980	19.559
0.990	19.551
1.000	19.554
1.010	19.565
1.020	19.582
1.030	19.602
1.040	19.623
1.050	19.642
1.060	19.656
1.070	19.666
1.080	19.670
1.090	19.671
1.100	19.671
1.110	19.671
1.120	19.676
1.130	19.687
1.140	19.707
1.150	19.737
1.160	19.776
1.170	19.824
1.180	19.877
1.190	19.932
1.200	19.985
1.210	20.031
1.220	20.066
1.230	20.086
1.240	20.091
1.250	20.078
1.260	20.049
1.270	20.005
1.280	19.950
1.290	19.887
1.300	19.822
1.310	19.759
1.320	19.701
1.330	19.651
1.340	19.612
1.350	19.582
1.360	19.562
1.370	19.550
1.380	19.542
1.390	19.535
1.400	19.526
1.410	19.513
1.420	19.493
1.430	19.465
1.440	19.430
1.450	19.388
1.460	19.340
1.470	19.291
1.480	19.241
1.490	19.194
1.500	19.153
1.510	19.118
1.520	19.090
1.530	19.070
1.540	19.056
1.550	19.047
1.560	19.042
1.570	19.038
1.580	19.032
1.590	19.025
1.600	19.015
1.610	19.001
1.620	18.984
1.630	18.966
1.640	18.947
1.650	18.929
1.660	18.915
1.670	18.905
1.680	18.901
1.690	18.902
1.700	18.910
1.710	18.923
1.720	18.940
1.730	18.959
1.740	18.980
1.750	19.001
1.760	19.021
1.770	19.038
1.780	19.053
1.790	19.066
1.800	19.076
1.810	19.084
1.820	19.092
1.830	19.099
1.840	19.106
1.850	19.113
1.860	19.119
1.870	19.125
1.880	19.129
1.890	19.131
1.900	19.129
1.910	19.122
1.920	19.112
1.930	19.096
1.940	19.077
1.950	19.054
1.960	19.029
1.970	19.003
1.980	18.977
1.990	18.954
2.000	18.934
2.010	18.917
2.020	18.904
2.030	18.895
2.040	18.888
2.050	18.883
2.060	18.877
2.070	18.870
2.080	18.860
2.090	18.847
2.100	18.829
2.110	18.807
2.120	18.781
2.130	18.752
2.140	18.722
2.150	18.692
2.160	18.663
2.170	18.637
2.180	18.614
2.190	18.596
2.200	18.583
2.210	18.575
2.220	18.571
2.230	18.569
2.240	18.571
2.250	18.573
2.260	18.577
2.270	18.579
2.280	18.582
2.290	18.583
2.300	18.583
2.310	18.582
2.320	18.580
2.330	18.577
2.340	18.573
2.350	18.568
2.360	18.561
2.370	18.553
2.380	18.542
2.390	18.530
2.400	18.515
2.410	18.500
2.420	18.483
2.430	18.468
2.440	18.455
2.450	18.447
2.460	18.446
2.470	18.453
2.480	18.470
2.490	18.498
2.500	18.537
2.510	18.586
2.520	18.645
2.530	18.710
2.540	18.777
2.550	18.845
2.560	18.908
2.570	18.963
2.580	19.008
2.590	19.039
2.600	19.056
2.610	19.058
2.620	19.047
2.630	19.025
2.640	18.994
2.650	18.958
2.660	18.921
2.670	18.886
2.680	18.856
2.690	18.833
2.700	18.819
2.710	18.814
2.720	18.818
2.730	18.828
2.740	18.843
2.750	18.860
2.760	18.877
2.770	18.891
2.780	18.901
2.790	18.905
2.800	18.904
2.810	18.897
2.820	18.886
2.830	18.873
2.840	18.859
2.850	18.846
2.860	18.837
2.870	18.832
2.880	18.832
2.890	18.839
2.900	18.852
2.910	18.871
2.920	18.894
2.930	18.920
2.940	18.949
2.950	18.980
2.960	19.010
2.970	19.040
2.980	19.070
2.990	19.098
3.000	19.125
3.010	19.151
3.020	19.175
3.030	19.196
3.040	19.215
3.050	19.231
3.060	19.242
3.070	19.248
3.080	19.248
3.090	19.242
3.100	19.229
3.110	19.210
3.120	19.186
3.130	19.159
3.140	19.130
3.150	19.101
3.160	19.075
3.170	19.054
3.180	19.040
3.190	19.033
3.200	19.035
3.210	19.045
3.220	19.063
3.230	19.085
3.240	19.111
3.250	19.137
3.260	19.160
3.270	19.178
3.280	19.189
3.290	19.192
3.300	19.185
3.310	19.169
3.320	19.145
3.330	19.115
3.340	19.082
3.350	19.047
3.360	19.015
3.370	18.988
3.380	18.967
3.390	18.955
3.400	18.953
3.410	18.959
3.420	18.973
3.430	18.995
3.440	19.021
3.450	19.049
3.460	19.077
3.470	19.103
3.480	19.124
3.490	19.139
3.500	19.146
3.510	19.145
3.520	19.136
3.530	19.119
3.540	19.096
3.550	19.067
3.560	19.035
3.570	19.001
3.580	18.966
3.590	18.934
3.600	18.906
3.610	18.883
3.620	18.866
3.630	18.859
3.640	18.860
3.650	18.870
3.660	18.890
3.670	18.920
3.680	18.957
3.690	19.002
3.700	19.051
3.710	19.104
3.720	19.157
3.730	19.209
3.740	19.256
3.750	19.298
3.760	19.332
3.770	19.356
3.780	19.370
3.790	19.375
3.800	19.369
3.810	19.355
3.820	19.334
3.830	19.307
3.840	19.276
3.850	19.242
3.860	19.208
3.870	19.174
3.880	19.142
3.890	19.112
3.900	19.084
3.910	19.058
3.920	19.034
3.930	19.012
3.940	18.992
3.950	18.973
3.960	18.957
3.970	18.943
3.980	18.932
3.990	18.924
4.000	18.921
4.010	18.923
4.020	18.930
4.030	18.942
4.040	18.957
4.050	18.976
4.060	18.997
4.070	19.017
4.080	19.035
4.090	19.048
4.100	19.056
4.110	19.056
4.120	19.047
4.130	19.031
4.140	19.006
4.150	18.973
4.160	18.936
4.170	18.894
4.180	18.851
4.190	18.809
4.200	18.770
4.210	18.735
4.220	18.705
4.230	18.682
4.240	18.665
4.250	18.655
4.260	18.650
4.270	18.649
4.280	18.652
4.290	18.658
4.300	18.666
4.310	18.674
4.320	18.683
4.330	18.692
4.340	18.700
4.350	18.707
4.360	18.713
4.370	18.718
4.380	18.719
4.390	18.716
4.400	18.709
4.410	18.695
4.420	18.674
4.430	18.644
4.440	18.607
4.450	18.561
4.460	18.508
4.470	18.450
4.480	18.389
4.490	18.328
4.500	18.270
4.510	18.219
4.520	18.178
4.530	18.150
4.540	18.137
4.550	18.140
4.560	18.160
4.570	18.195
4.580	18.242
4.590	18.300
4.600	18.365
4.610	18.431
4.620	18.495
4.630	18.552
4.640	18.600
4.650	18.636
4.660	18.658
4.670	18.664
4.680	18.657
4.690	18.637
4.700	18.607
4.710	18.569
4.720	18.526
4.730	18.483
4.740	18.443
4.750	18.407
4.760	18.379
4.770	18.360
4.780	18.352
4.790	18.353
4.800	18.365
4.810	18.385
4.820	18.413
4.830	18.445
4.840	18.480
4.850	18.515
4.860	18.549
4.870	18.578
4.880	18.600
4.890	18.615
4.900	18.622
4.910	18.619
4.920	18.607
4.930	18.588
4.940	18.562
4.950	18.532
4.960	18.500
4.970	18.468
4.980	18.441
4.990	18.419
5.000	18.406
5.010	18.402
5.020	18.410
5.030	18.428
5.040	18.456
5.050	18.493
5.060	18.536
5.070	18.583
5.080	18.629
5.090	18.673
5.100	18.712
5.110	18.743
5.120	18.766
5.130	18.779
5.140	18.782
5.150	18.778
5.160	18.768
5.170	18.754
5.180	18.739
5.190	18.724
5.200	18.713
5.210	18.705
5.220	18.701
5.230	18.702
5.240	18.706
5.250	18.712
5.260	18.717
5.270	18.719
5.280	18.718
5.290	18.711
5.300	18.697
5.310	18.678
5.320	18.653
5.330	18.625
5.340	18.595
5.350	18.567
5.360	18.543
5.370	18.525
5.380	18.516
5.390	18.516
5.400	18.525
5.410	18.544
5.420	18.569
5.430	18.598
5.440	18.630
5.450	18.660
5.460	18.686
5.470	18.706
5.480	18.718
5.490	18.722
5.500	18.718
5.510	18.707
5.520	18.691
5.530	18.674
5.540	18.657
5.550	18.644
5.560	18.636
5.570	18.635
5.580	18.643
5.590	18.658
5.600	18.681
5.610	18.709
5.620	18.741
5.630	18.773
5.640	18.804
5.650	18.831
5.660	18.852
5.670	18.866
5.680	18.873
5.690	18.872
5.700	18.865
5.710	18.853
5.720	18.838
5.730	18.822
5.740	18.806
5.750	18.793
5.760	18.785
5.770	18.783
5.780	18.786
5.790	18.797
5.800	18.815
5.810	18.839
5.820	18.869
5.830	18.905
5.840	18.944
5.850	18.986
5.860	19.030
5.870	19.073
5.880	19.115
5.890	19.153
5.900	19.187
5.910	19.214
5.920	19.234
5.930	19.246
5.940	19.249
5.950	19.243
5.960	19.230
5.970	19.210
5.980	19.186
5.990	19.160
6.000	19.134
6.010	19.112
6.020	19.095
6.030	19.087
6.040	19.087
6.050	19.095
6.060	19.113
6.070	19.137
6.080	19.164
6.090	19.193
6.100	19.220
6.110	19.241
6.120	19.253
6.130	19.255
6.140	19.245
6.150	19.224
6.160	19.193
6.170	19.155
6.180	19.113
6.190	19.072
6.200	19.035
6.210	19.006
6.220	18.989
6.230	18.984
6.240	18.993
6.250	19.014
6.260	19.044
6.270	19.080
6.280	19.116
6.290	19.147
6.300	19.168
6.310	19.174
6.320	19.163
6.330	19.132
6.340	19.082
6.350	19.015
6.360	18.933
6.370	18.842
6.380	18.746
6.390	18.653
6.400	18.568
6.410	18.496
6.420	18.439
6.430	18.401
6.440	18.380
6.450	18.377
6.460	18.387
6.470	18.407
6.480	18.431
6.490	18.454
6.500	18.471
6.510	18.479
6.520	18.474
6.530	18.456
6.540	18.423
6.550	18.378
6.560	18.322
6.570	18.261
6.580	18.197
6.590	18.136
6.600	18.080
6.610	18.033
6.620	17.997
6.630	17.974
6.640	17.962
6.650	17.962
6.660	17.972
6.670	17.988
6.680	18.008
6.690	18.030
6.700	18.051
6.710	18.069
6.720	18.082
6.730	18.091
6.740	18.094
6.750	18.092
6.760	18.086
6.770	18.077
6.780	18.067
6.790	18.056
6.800	18.046
6.810	18.037
6.820	18.030
6.830	18.025
6.840	18.023
6.850	18.022
6.860	18.024
6.870	18.027
6.880	18.031
6.890	18.037
6.900	18.044
6.910	18.052
6.920	18.061
6.930	18.070
6.940	18.080
6.950	18.090
6.960	18.098
6.970	18.106
6.980	18.110
6.990	18.111
7.000	18.108
7.010	18.099
7.020	18.084
7.030	18.062
7.040	18.035
7.050	18.003
7.060	17.966
7.070	17.928
7.080	17.889
7.090	17.852
7.100	17.819
7.110	17.793
7.120	17.775
7.130	17.768
7.140	17.771
7.150	17.785
7.160	17.808
7.170	17.840
7.180	17.878
7.190	17.920
7.200	17.962
7.210	18.000
7.220	18.033
7.230	18.057
7.240	18.069
7.250	18.070
7.260	18.059
7.270	18.036
7.280	18.004
7.290	17.965
7.300	17.922
7.310	17.878
7.320	17.838
7.330	17.804
7.340	17.779
7.350	17.765
7.360	17.762
7.370	17.769
7.380	17.786
7.390	17.810
7.400	17.837
7.410	17.864
7.420	17.887
7.430	17.905
7.440	17.913
7.450	17.912
7.460	17.901
7.470	17.882
7.480	17.857
7.490	17.828
7.500	17.801
7.510	17.778
7.520	17.764
7.530	17.760
7.540	17.770
7.550	17.792
7.560	17.827
7.570	17.871
7.580	17.920
7.590	17.972
7.600	18.019
7.610	18.059
7.620	18.087
7.630	18.101
7.640	18.098
7.650	18.081
7.660	18.050
7.670	18.009
7.680	17.964
7.690	17.919
7.700	17.880
7.710	17.852
7.720	17.839
7.730	17.843
7.740	17.866
7.750	17.906
7.760	17.960
7.770	18.024
7.780	18.093
7.790	18.162
7.800	18.224
7.810	18.274
7.820	18.310
7.830	18.328
7.840	18.328
7.850	18.311
7.860	18.280
7.870	18.237
7.880	18.188
7.890	18.136
7.900	18.086
7.910	18.041
7.920	18.003
7.930	17.973
7.940	17.951
7.950	17.936
7.960	17.926
7.970	17.920
7.980	17.914
7.990	17.909
8.000	17.902
8.010	17.894
8.020	17.885
8.030	17.879
8.040	17.877
8.050	17.881
8.060	17.895
8.070	17.920
8.080	17.956
8.090	18.003
8.100	18.060
8.110	18.124
8.120	18.190
8.130	18.254
8.140	18.311
8.150	18.357
8.160	18.388
8.170	18.402
8.180	18.398
8.190	18.375
8.200	18.337
8.210	18.287
8.220	18.229
8.230	18.168
8.240	18.108
8.250	18.055
8.260	18.011
8.270	17.978
8.280	17.958
8.290	17.949
8.300	17.949
8.310	17.956
8.320	17.966
8.330	17.975
8.340	17.982
8.350	17.982
8.360	17.975
8.370	17.960
8.380	17.938
8.390	17.910
8.400	17.879
8.410	17.849
8.420	17.820
8.430	17.796
8.440	17.780
8.450	17.771
8.460	17.770
8.470	17.776
8.480	17.789
8.490	17.807
8.500	17.827
8.510	17.848
8.520	17.869
8.530	17.887
8.540	17.904
8.550	17.919
8.560	17.932
8.570	17.944
8.580	17.957
8.590	17.972
8.600	17.989
8.610	18.008
8.620	18.029
8.630	18.051
8.640	18.073
8.650	18.094
8.660	18.112
8.670	18.126
8.680	18.135
8.690	18.138
8.700	18.135
8.710	18.127
8.720	18.116
8.730	18.103
8.740	18.089
8.750	18.077
8.760	18.068
8.770	18.063
8.780	18.062
8.790	18.065
8.800	18.073
8.810	18.083
8.820	18.094
8.830	18.106
8.840	18.117
8.850	18.127
8.860	18.135
8.870	18.141
8.880	18.146
8.890	18.151
8.900	18.157
8.910	18.164
8.920	18.175
8.930	18.188
8.940	18.205
8.950	18.223
8.960	18.241
8.970	18.257
8.980	18.270
8.990	18.276
9.000	18.274
9.010	18.263
9.020	18.241
9.030	18.209
9.040	18.167
9.050	18.118
9.060	18.064
9.070	18.008
9.080	17.952
9.090	17.899
9.100	17.851
9.110	17.809
9.120	17.774
9.130	17.745
9.140	17.721
9.150	17.701
9.160	17.683
9.170	17.665
9.180	17.646
9.190	17.625
9.200	17.602
9.210	17.577
9.220	17.552
9.230	17.528
9.240	17.509
9.250	17.494
9.260	17.488
9.270	17.490
9.280	17.500
9.290	17.520
9.300	17.545
9.310	17.576
9.320	17.608
9.330	17.639
9.340	17.665
9.350	17.686
9.360	17.697
9.370	17.701
9.380	17.696
9.390	17.684
9.400	17.667
9.410	17.649
9.420	17.632
9.430	17.620
9.440	17.615
9.450	17.619
9.460	17.632
9.470	17.654
9.480	17.684
9.490	17.720
9.500	17.758
9.510	17.797
9.520	17.833
9.530	17.864
9.540	17.888
9.550	17.906
9.560	17.917
9.570	17.922
9.580	17.924
9.590	17.924
9.600	17.927
9.610	17.932
9.620	17.943
9.630	17.959
9.640	17.981
9.650	18.008
9.660	18.037
9.670	18.065
9.680	18.092
9.690	18.113
9.700	18.126
9.710	18.130
9.720	18.126
9.730	18.112
9.740	18.092
9.750	18.067
9.760	18.042
9.770	18.019
9.780	18.002
9.790	17.994
9.800	17.997
9.810	18.013
9.820	18.041
9.830	18.080
9.840	18.128
9.850	18.182
9.860	18.238
9.870	18.292
9.880	18.340
9.890	18.378
9.900	18.406
9.910	18.419
9.920	18.419
9.930	18.406
9.940	18.380
9.950	18.345
9.960	18.303
9.970	18.257
9.980	18.210
9.990	18.165
10.000	18.126
10.010	18.094
10.020	18.071
10.030	18.057
10.040	18.053
10.050	18.059
10.060	18.072
10.070	18.093
10.080	18.118
10.090	18.145
10.100	18.172
10.110	18.197
10.120	18.218
10.130	18.232
10.140	18.238
10.150	18.235
10.160	18.222
10.170	18.200
10.180	18.170
10.190	18.132
10.200	18.090
10.210	18.045
10.220	18.001
10.230	17.960
10.240	17.923
10.250	17.893
10.260	17.871
10.270	17.858
10.280	17.851
10.290	17.851
10.300	17.854
10.310	17.859
10.320	17.862
10.330	17.861
10.340	17.854
10.350	17.840
10.360	17.818
10.370	17.788
10.380	17.753
10.390	17.715
10.400	17.677
10.410	17.643
10.420	17.615
10.430	17.596
10.440	17.589
10.450	17.594
10.460	17.611
10.470	17.638
10.480	17.673
10.490	17.713
10.500	17.754
10.510	17.791
10.520	17.823
10.530	17.846
10.540	17.859
10.550	17.863
10.560	17.859
10.570	17.848
10.580	17.835
10.590	17.823
10.600	17.816
10.610	17.816
10.620	17.826
10.630	17.846
10.640	17.877
10.650	17.917
10.660	17.963
10.670	18.011
10.680	18.057
10.690	18.098
10.700	18.129
10.710	18.149
10.720	18.156
10.730	18.150
10.740	18.132
10.750	18.104
10.760	18.071
10.770	18.035
10.780	18.001
10.790	17.970
10.800	17.946
10.810	17.928
10.820	17.917
10.830	17.912
10.840	17.909
10.850	17.908
10.860	17.904
10.870	17.896
10.880	17.882
10.890	17.862
10.900	17.836
10.910	17.807
10.920	17.778
10.930	17.752
10.940	17.733
10.950	17.725
10.960	17.730
10.970	17.750
10.980	17.784
10.990	17.830
11.000	17.885
11.010	17.944
11.020	18.001
11.030	18.050
11.040	18.085
11.050	18.103
11.060	18.099
11.070	18.074
11.080	18.027
11.090	17.963
11.100	17.885
11.110	17.801
11.120	17.718
11.130	17.641
11.140	17.578
11.150	17.533
11.160	17.510
11.170	17.508
11.180	17.528
11.190	17.566
11.200	17.617
11.210	17.677
11.220	17.737
11.230	17.794
11.240	17.841
11.250	17.875
11.260	17.893
11.270	17.896
11.280	17.883
11.290	17.858
11.300	17.824
11.310	17.785
11.320	17.745
11.330	17.707
11.340	17.676
11.350	17.652
11.360	17.636
11.370	17.630
11.380	17.630
11.390	17.637
11.400	17.647
11.410	17.660
11.420	17.674
11.430	17.688
11.440	17.702
11.450	17.717
11.460	17.732
11.470	17.751
11.480	17.774
11.490	17.803
11.500	17.838
11.510	17.880
11.520	17.927
11.530	17.979
11.540	18.034
11.550	18.090
11.560	18.142
11.570	18.189
11.580	18.228
11.590	18.258
11.600	18.276
11.610	18.283
11.620	18.279
11.630	18.266
11.640	18.244
11.650	18.217
11.660	18.186
11.670	18.155
11.680	18.125
11.690	18.099
11.700	18.078
11.710	18.062
11.720	18.054
11.730	18.052
11.740	18.057
11.750	18.068
11.760	18.085
11.770	18.107
11.780	18.133
11.790	18.162
11.800	18.192
11.810	18.223
11.820	18.251
11.830	18.277
11.840	18.296
11.850	18.309
11.860	18.314
11.870	18.308
11.880	18.293
11.890	18.266
11.900	18.230
11.910	18.186
11.920	18.137
11.930	18.084
11.940	18.031
11.950	17.982
11.960	17.939
11.970	17.905
11.980	17.882
11.990	17.869
12.000	17.867
12.010	17.873
12.020	17.886
12.030	17.902
12.040	17.917
12.050	17.928
12.060	17.932
12.070	17.927
12.080	17.911
12.090	17.885
12.100	17.849
12.110	17.807
12.120	17.762
12.130	17.717
12.140	17.675
12.150	17.642
12.160	17.619
12.170	17.607
12.180	17.607
12.190	17.619
12.200	17.639
12.210	17.664
12.220	17.691
12.230	17.715
12.240	17.733
12.250	17.740
12.260	17.736
12.270	17.718
12.280	17.688
12.290	17.647
12.300	17.597
12.310	17.544
12.320	17.489
12.330	17.439
12.340	17.396
12.350	17.363
12.360	17.344
12.370	17.338
12.380	17.346
12.390	17.367
12.400	17.399
12.410	17.439
12.420	17.484
12.430	17.531
12.440	17.577
12.450	17.618
12.460	17.654
12.470	17.681
12.480	17.699
12.490	17.706
12.500	17.703
12.510	17.689
12.520	17.665
12.530	17.632
12.540	17.590
12.550	17.542
12.560	17.489
12.570	17.434
12.580	17.378
12.590	17.325
12.600	17.278
12.610	17.239
12.620	17.212
12.630	17.198
12.640	17.200
12.650	17.217
12.660	17.251
12.670	17.298
12.680	17.357
12.690	17.425
12.700	17.498
12.710	17.570
12.720	17.638
12.730	17.699
12.740	17.748
12.750	17.785
12.760	17.807
12.770	17.816
12.780	17.814
12.790	17.803
12.800	17.787
12.810	17.769
12.820	17.753
12.830	17.742
12.840	17.738
12.850	17.742
12.860	17.754
12.870	17.773
12.880	17.798
12.890	17.824
12.900	17.850
12.910	17.873
12.920	17.891
12.930	17.902
12.940	17.905
12.950	17.901
12.960	17.892
12.970	17.878
12.980	17.862
12.990	17.846
13.000	17.832
13.010	17.820
13.020	17.812
13.030	17.806
13.040	17.802
13.050	17.798
13.060	17.792
13.070	17.782
13.080	17.767
13.090	17.747
13.100	17.721
13.110	17.692
13.120	17.661
13.130	17.632
13.140	17.609
13.150	17.594
13.160	17.590
13.170	17.601
13.180	17.625
13.190	17.662
13.200	17.709
13.210	17.764
13.220	17.820
13.230	17.873
13.240	17.917
13.250	17.948
13.260	17.962
13.270	17.958
13.280	17.934
13.290	17.894
13.300	17.841
13.310	17.780
13.320	17.715
13.330	17.654
13.340	17.602
13.350	17.561
13.360	17.536
13.370	17.525
13.380	17.529
13.390	17.543
13.400	17.563
13.410	17.584
13.420	17.600
13.430	17.605
13.440	17.596
13.450	17.570
13.460	17.526
13.470	17.468
13.480	17.397
13.490	17.320
13.500	17.242
13.510	17.169
13.520	17.108
13.530	17.063
13.540	17.038
13.550	17.034
13.560	17.050
13.570	17.085
13.580	17.134
13.590	17.192
13.600	17.253
13.610	17.313
13.620	17.367
13.630	17.412
13.640	17.445
13.650	17.468
13.660	17.481
13.670	17.487
13.680	17.490
13.690	17.494
13.700	17.502
13.710	17.517
13.720	17.541
13.730	17.574
13.740	17.616
13.750	17.665
13.760	17.718
13.770	17.770
13.780	17.819
13.790	17.861
13.800	17.894
13.810	17.917
13.820	17.929
13.830	17.931
13.840	17.926
13.850	17.917
13.860	17.907
13.870	17.898
13.880	17.894
13.890	17.897
13.900	17.907
13.910	17.924
13.920	17.947
13.930	17.973
13.940	18.001
13.950	18.026
13.960	18.046
13.970	18.060
13.980	18.064
13.990	18.060
14.000	18.046
14.010	18.025
14.020	17.998
14.030	17.968
14.040	17.936
14.050	17.905
14.060	17.875
14.070	17.849
14.080	17.825
14.090	17.803
14.100	17.782
14.110	17.759
14.120	17.733
14.130	17.703
14.140	17.667
14.150	17.626
14.160	17.578
14.170	17.526
14.180	17.470
14.190	17.415
14.200	17.361
14.210	17.313
14.220	17.271
14.230	17.238
14.240	17.214
14.250	17.201
14.260	17.197
14.270	17.201
14.280	17.212
14.290	17.227
14.300	17.245
14.310	17.262
14.320	17.279
14.330	17.294
14.340	17.305
14.350	17.314
14.360	17.321
14.370	17.326
14.380	17.330
14.390	17.334
14.400	17.338
14.410	17.343
14.420	17.348
14.430	17.353
14.440	17.358
14.450	17.360
14.460	17.360
14.470	17.357
14.480	17.349
14.490	17.338
14.500	17.322
14.510	17.302
14.520	17.280
14.530	17.257
14.540	17.233
14.550	17.211
14.560	17.190
14.570	17.171
14.580	17.155
14.590	17.143
14.600	17.132
14.610	17.124
14.620	17.117
14.630	17.110
14.640	17.103
14.650	17.095
14.660	17.086
14.670	17.076
14.680	17.065
14.690	17.053
14.700	17.040
14.710	17.027
14.720	17.013
14.730	17.000
14.740	16.987
14.750	16.974
14.760	16.961
14.770	16.949
14.780	16.939
14.790	16.929
14.800	16.922
14.810	16.919
14.820	16.920
14.830	16.927
14.840	16.941
14.850	16.963
14.860	16.994
14.870	17.032
14.880	17.079
14.890	17.131
14.900	17.186
14.910	17.242
14.920	17.295
14.930	17.343
14.940	17.380
14.950	17.407
14.960	17.419
14.970	17.417
